/,U,s,e,r,s,/,g,a,b,r,i,e,l,/,D,o,c,u,m,e,n,t,s,/,G,i,t,H,u,b,/,L,u,c,i,E,n,t,r,y,-,H,o,m,e,/,D,e,v,i,c,e,s,/,d,e,t,e,c,t,o,r,/,c,n,n, ,t,r,a,i,n,i,n,g,/,c,n,n,_,e,o,g,_,d,a,t,a,/,g,a,b,t,e,s,t,3,8,/,g,a,b,t,e,s,t,3,8,_,e,o,g,_,f,i,l,_,s,l,o,w,_,d,a,t,a,.,c,s,v
Left,"[0.0032062255187943877, 0.03243529347404875, 0.15512605346909994, 0.474102058264022, 1.0603574300480159, 1.8944875987371042, 2.8972924414418815, 4.015694483817397, 5.252990075917561, 6.6085274445159286, 8.015551183200131, 9.367433326418656, 10.599572959832926, 11.716944179035806, 12.731690796434037, 13.598241196090441, 14.236222036872391, 14.609415399945533, 14.751703860252235, 14.70439366696985, 14.451207586833561, 13.94088285370583, 13.166344732595007, 12.190836754507245, 11.084153515013668, 9.85558852592294, 8.474750936190048, 6.950091201890245, 5.355478987137758, 3.766570808355482, 2.1928473974162443, 0.59822267139225, -1.0184720448341977, -2.593876044737044, -4.061354917409517, -5.418165442764348, -6.705835618897254, -7.931429084283991, -9.039000541190944, -9.971143645401753, -10.73629667946625, -11.389215060772585, -11.952006146963868, -12.384522310547254, -12.644061722265178, -12.75133584658488, -12.77071940524911, -12.731204106002224, -12.596778126933714, -12.327200128021104, -11.945846049702595, -11.52120772347007, -11.087474872523671, -10.613464803416718, -10.062798660646877, -9.462506066902279, -8.88459064050403, -8.365064096641618, -7.871294404327273, -7.361471503821122, -6.853325431437952, -6.40716589387921, -6.0471470045058595, -5.729938051957106, -5.404727442572948, -5.082796606452575, -4.821638548031842, -4.6466172727014055, -4.5184117096678165, -4.390489636522034, -4.276667554860978, -4.234227734015803, -4.2846338545432445, -4.380768611277745, -4.466139421560911, -4.54523242246978, -4.668888846923437, -4.8557066227976975, -5.058277458829252, -5.221251577887415, -5.3515151543952015, -5.50322562000747, -5.6979102068853535, -5.889288922022388, -6.020564677013681, -6.095047111791246, -6.16313481655925, -6.244369052760703, -6.292585446808516, -6.252546995096964, -6.13038034382771, -5.981185576628377, -5.831796611330901, -5.645511210617769, -5.377129363081622, -5.041994076117135, -4.70259004340096, -4.389789430535075, -4.066480390957167, -3.6835353777382807, -3.2512553566871247, -2.8279982374788233, -2.4420416901280078, -2.054934111044986, -1.6176472815670877, -1.142721077293345, -0.6927814972319766, -0.3011456290021215, 0.06648716452511394, 0.45751414477103935, 0.8611769262492714, 1.219358831374791, 1.504522441878862, 1.7571811145755873, 2.030889713368879, 2.3199764676164705, 2.5690708768900095, 2.750597468574142, 2.9034062992559484, 3.079670162147522, 3.2733245351882942, 3.429151052248926, 3.5203666440083907, 3.5876442647831936, 3.6853558773259465, 3.8087410264993196, 3.902314311998907, 3.9378431121726862, 3.9542691064771134, 4.00413448684867, 4.080227902339175, 4.123975523092668, 4.10402400332805, 4.05693106693343, 4.0345555986177715, 4.031065966500137, 3.9903477935276896, 3.8835477089842243, 3.749938786774692, 3.644904317835426, 3.5666254283696617, 3.4620293003908955, 3.3030392512828257, 3.127866964517125, 2.990423658094187, 2.8876174682218334, 2.765545121635114, 2.5966847779354794, 2.4217415206358055, 2.2983050863967946, 2.2268747566613456, 2.155945374212024, 2.0586758941926746, 1.9748430259342058, 1.9592095894067825, 2.00675879206392, 2.0580422992206877, 2.0776778674553498, 2.0987053359567653, 2.1728774844959844, 2.2960782047848625, 2.4117297964439786, 2.4872358831235033, 2.5578958058176795, 2.677409011264899, 2.8428422068609507, 2.9971452369009057, 3.105228109159725, 3.198846726660122, 3.3289688270124316, 3.4918125443964527, 3.631158889807921, 3.7140537367067736, 3.775423149450944, 3.8696978732314165, 3.9959167356391845, 4.099700645690973, 4.149526084607714, 4.182205126839108, 4.254313591105529, 4.365847764993305, 4.46110749006948, 4.5053265486967575, 4.531689057559561, 4.594764404602756, 4.695241981804429, 4.779883083700042, 4.816276218451094, 4.838639382696783, 4.900879102558974, 5.0012664297137235, 5.08232479129947, 5.106012075817489, 5.101262412497817, 5.1190737488468585, 5.157571354982792, 5.161132903820544, 5.095233671805545, 4.993771965662745, 4.913308782723107, 4.8570379199845775, 4.77322181767704, 4.63014117016246, 4.463799239603759, 4.331687541616702, 4.235934898533742, 4.122009874226933, 3.954840105288895, 3.7678085000952706, 3.617623704041762, 3.5074039287519554, 3.3838769371886883, 3.212518279644428, 3.0272620623527473, 2.886399562022234, 2.7954754994407267, 2.7029346128610996, 2.5735904182593003, 2.43843225710134, 2.3524091456210954, 2.318927337922105, 2.2859672815548038, 2.2196498077619253, 2.153606622825464, 2.1454169277085384, 2.19975011556744, 2.2639957163064537, 2.3021955123795124, 2.3449637545190853, 2.4457872575576403, 2.603694140130756, 2.759232464937668, 2.8696694562013363, 2.9606799973835223, 3.084261171809885, 3.2411877624108456, 3.3747819697227897, 3.4445919641775617, 3.478644675367832, 3.5323867597371645, 3.610968371045601, 3.6615509086609563, 3.645684422202976, 3.592029226932482, 3.556803721349297, 3.5467638125655867, 3.5114804907584585, 3.4157169847949262, 3.2917941476011947, 3.1991914157288193]","[0.002338087536870086, 0.02394197722142662, 0.11554907270118056, 0.3555299753617248, 0.7990648993691034, 1.4325275429736792, 2.195642775623658, 3.0472500545657217, 3.9897174019203874, 5.023373029319828, 6.09779917597163, 7.130596721417959, 8.070510135635274, 8.920224477785567, 9.689374178027947, 10.343727568338068, 10.821360729186495, 11.093585343785321, 11.18648392807853, 11.13332366265621, 10.9232182239042, 10.516894183723593, 9.90767813715604, 9.14317071022856, 8.277222297978597, 7.317539098698489, 6.2402323818730565, 5.0501762770609275, 3.802950617034412, 2.5570380617982664, 1.3208703091290772, 0.06706581310072579, -1.2060590820724428, -2.4503525354957674, -3.6137918766939947, -4.692917539310656, -5.719318077257867, -6.699209175438227, -7.590020451806595, -8.346710485961921, -8.974374283080124, -9.51463852189272, -9.984730331620085, -10.353113877543365, -10.584677205931257, -10.692675977776162, -10.725215703439972, -10.704605363795963, -10.603189768618904, -10.389104998107541, -10.079289552894807, -9.72679614314984, -9.359802837363532, -8.956120573748194, -8.48814033898816, -7.976143527926979, -7.475718536997192, -7.015934861303322, -6.572991021544112, -6.11488038015068, -5.654930414968476, -5.240220029324519, -4.89117421197534, -4.576098688753518, -4.25635661821434, -3.9407013712934713, -3.674470693244075, -3.4791970766200393, -3.3260225606345557, -3.1790913051163443, -3.0485205844797747, -2.9788761365525716, -2.9881764340116206, -3.0412216639570033, -3.0941273494595407, -3.149268959467463, -3.24561676373105, -3.398477670487864, -3.571995756165961, -3.722403448118257, -3.852463091401205, -4.001678436898601, -4.185542683502263, -4.36737698901743, -4.501305708790824, -4.587287004817426, -4.662712317912792, -4.742748904684959, -4.792128470265652, -4.76750113743492, -4.672239949762115, -4.548376891917542, -4.417275972984044, -4.251098765625784, -4.014289085895371, -3.7176169470089917, -3.40941402201679, -3.1151314376697883, -2.807858312131998, -2.4501503255278863, -2.049652074952405, -1.6519202909281034, -1.2805694729642028, -0.907607930399422, -0.4952811767257117, -0.05213132901701556, 0.3739849785720253, 0.7562133843528045, 1.1193549400538814, 1.4992266011081483, 1.8874400006661745, 2.2383354761793726, 2.5286994483321905, 2.78791639479914, 3.056779840281706, 3.3313034045540917, 3.5687086866087157, 3.7470324198557137, 3.896191896285927, 4.057869791711255, 4.229403649093001, 4.369062828008737, 4.455429911516603, 4.518833988971892, 4.601249865287173, 4.69970183163332, 4.7712109905123725, 4.79252252104834, 4.792330483122896, 4.811546663099762, 4.846428244611161, 4.853194851368244, 4.807630277005956, 4.7374297009309885, 4.682914155870094, 4.640398549960992, 4.566467906102844, 4.437386421835072, 4.281945216906024, 4.142753357724359, 4.019403163459174, 3.871676861072956, 3.678007453938335, 3.4684330130694434, 3.286405488728633, 3.1319151162406342, 2.964677624840988, 2.7632553846333394, 2.558612804682525, 2.395860234844804, 2.276851892159357, 2.162588085267089, 2.0317839289728, 1.914462704113248, 1.853620304161268, 1.8472361055082729, 1.8505577794176133, 1.835760686208232, 1.8273192971500976, 1.865109574091548, 1.9465704657668539, 2.0277646681224724, 2.081786459416435, 2.1339108403808495, 2.224811628045245, 2.3523468056910133, 2.4721078183256395, 2.5558134276316196, 2.6271346496259866, 2.7259289690355217, 2.850510823222976, 2.9577678178520728, 3.020942439022292, 3.0652774784311987, 3.132159056414821, 3.221105673222155, 3.289816068764594, 3.3125060144329836, 3.316393803336723, 3.3459001635437744, 3.403388617500241, 3.4477054802991915, 3.4521232563520243, 3.4417242018207617, 3.459084532619272, 3.5060698600154865, 3.542217908447128, 3.5416278632919784, 3.5293231569175987, 3.546433027623607, 3.5919932976785276, 3.621655565278161, 3.605322716038245, 3.5648635721972823, 3.5404395637187918, 3.532147593163245, 3.497760083399953, 3.409790773009263, 3.2931188521924923, 3.1911538799322443, 3.107042840225404, 3.000978903553005, 2.8473704873522365, 2.6728851791303896, 2.5224335192824583, 2.399697347340407, 2.264229209939913, 2.08906832690991, 1.8994813358012834, 1.7395330813569672, 1.6125340275439157, 1.4774198468940085, 1.3061906466127766, 1.123534537847263, 0.974287000966342, 0.8637816070163353, 0.7531228579332492, 0.6152636923643513, 0.4742633071655291, 0.3737283732011747, 0.31822305176001464, 0.26877750920903054, 0.19888144979086064, 0.13355102962896126, 0.11711697127384468, 0.15385495036071006, 0.20323630490611322, 0.2362888186503369, 0.27521469074622473, 0.36125092461907116, 0.49486570456588197, 0.630837424743504, 0.7352114982818421, 0.8261478240167435, 0.942911919109747, 1.0859317346402122, 1.210541389360401, 1.2832200928086195, 1.3231478429349863, 1.3721030319648548, 1.4344610509240852, 1.4699179354651335, 1.448684820847177, 1.3929780208414115, 1.3475051876610564, 1.3196335266903247, 1.271836835379304, 1.1767296055389806, 1.0585021881341845, 0.963249435390253]"
Neutral,"[-0.0005668727811106211, 0.003308732730578144, 0.04690373351232998, 0.2105459757206687, 0.5739454432490758, 1.14351195274098, 1.8497439503115658, 2.6258055791392683, 3.4659943032317475, 4.389767911070376, 5.366038853689037, 6.30576606182818, 7.1356447225632, 7.853420404920996, 8.490140973650838, 9.032331342610291, 9.411461862416132, 9.57525852762626, 9.54303053335201, 9.36885741352745, 9.063559715402505, 8.583392487914466, 7.90092968444219, 7.05973906912584, 6.136550546722901, 5.162334202206466, 4.110162880315556, 2.9653486213837823, 1.779590163197554, 0.6325780969771131, -0.4472384572034116, -1.4942283138325365, -2.5341590983798596, -3.528242939111351, -4.4095897764054826, -5.161728250830038, -5.830784809856141, -6.454016565211532, -7.0024907933257055, -7.4164653539796745, -7.684739748955963, -7.859348944199155, -7.985886623429906, -8.04540236325738, -7.987685434506602, -7.809216412674232, -7.56741890899184, -7.311200162756904, -7.023716776621313, -6.656749328154092, -6.20941527583318, -5.74261449974756, -5.309057670567654, -4.8951085115227215, -4.45440095945014, -3.986070771982213, -3.5489938767364038, -3.191824394908508, -2.8946070402498663, -2.6023362223536424, -2.3043979645490253, -2.0506884658602758, -1.8825769788891193, -1.774255606699171, -1.665737476423601, -1.5425687549891336, -1.4533429122939197, -1.4412637595378328, -1.4836786111036417, -1.5224116292883991, -1.5421828594157887, -1.5882694486190303, -1.6987606444749872, -1.844959276838381, -1.9628485379489575, -2.0329087925292697, -2.09881221023079, -2.199776184639177, -2.310585896559587, -2.3726127596710285, -2.3726638554062447, -2.3603180072650503, -2.379305151957851, -2.40669521828886, -2.3830461944066883, -2.2918460926762236, -2.179406244918937, -2.0884307716196417, -1.9973990700141258, -1.8500890668865395, -1.6349903138798254, -1.4054927820502598, -1.2127194650120146, -1.0426770198241684, -0.8436958155198226, -0.6055270174583711, -0.3804060750753706, -0.2167400005541822, -0.09682067879293754, 0.035378872052888255, 0.19469291717450687, 0.33307102375488284, 0.40531836818240663, 0.4308318747221165, 0.4654146592970392, 0.5222851222629288, 0.5515672790784265, 0.5070900839523347, 0.40947348786380644, 0.3192028783469141, 0.25680925515143826, 0.1797302049112659, 0.0474947635789249, -0.11498414097127352, -0.24396563978723407, -0.31743852346630774, -0.37982062066009803, -0.47733054316097423, -0.5930214523408495, -0.6708988035109655, -0.6950242966991027, -0.7136178104732949, -0.7743882477625732, -0.8601448699261312, -0.913593075637408, -0.9169921036278197, -0.9169540903432676, -0.9603636498934236, -1.0301377193179633, -1.0697345464955674, -1.062250513869344, -1.054921685486704, -1.0950457198717913, -1.165112326735084, -1.2062737770590957, -1.1977398616462551, -1.1830125922280104, -1.2069520545658179, -1.2506062390707484, -1.2541738576649095, -1.1969132423546398, -1.1245293107167527, -1.0862778762011658, -1.0680490159127203, -1.0134669808492163, -0.9031518073084044, -0.782298185641821, -0.6985231335390836, -0.6359406874098568, -0.5367042505581594, -0.380503922133812, -0.21283093246120188, -0.08327913681569044, 0.020601011475264386, 0.15236491375117112, 0.3280990728917459, 0.4990031754668962, 0.6137495178854806, 0.685751711192097, 0.7730568020706414, 0.898587625304117, 1.0200690605515774, 1.0905288961398583, 1.125459525030692, 1.1833778929840264, 1.2860883512980763, 1.388000736239519, 1.437051119417447, 1.4438670410527266, 1.4642992153776504, 1.5205357292225017, 1.570394602145825, 1.5673543086186328, 1.5282148601618246, 1.5143277224788108, 1.5517601152123461, 1.5999636980031937, 1.6117076316131715, 1.6008976650982731, 1.624382237597274, 1.7033249807491302, 1.7925766340958944, 1.840603814476708, 1.8582008754519848, 1.901668851701288, 1.9937657329774083, 2.091166386355326, 2.143277949773619, 2.1611759233919656, 2.2011436790762673, 2.2851503113233775, 2.367344614501235, 2.3929589665649473, 2.369053553863523, 2.35013378225176, 2.359547361710611, 2.3557396877658903, 2.2901216709187793, 2.176470768656145, 2.075615364375153, 2.016251795127573, 1.9605354816494582, 1.8614528554135177, 1.732376940789436, 1.6327595799994015, 1.5901788267647134, 1.5661298829481893, 1.5129546846419544, 1.4439189324939434, 1.419742089941792, 1.4698556234689022, 1.5562905447641242, 1.6295574296964332, 1.6990586871870619, 1.8205214355612043, 2.017639727315327, 2.2456751569961853, 2.4477707780015407, 2.62712252914298, 2.8358559215430432, 3.0966372099501314, 3.365498928611487, 3.5873797786134674, 3.7677193694516973, 3.9611294221458593, 4.19303446388767, 4.422436546522476, 4.596934115306794, 4.723272587621977, 4.855530056863245, 5.017486019669377, 5.1661761356836, 5.247448807499495, 5.267886342735437, 5.284332340655965, 5.325524591881731, 5.353504834675732, 5.318097136486358, 5.229489368229224, 5.14856981241428, 5.1078247673131045, 5.070877482542528, 4.986136409073879, 4.860513885722867, 4.751646757370509, 4.690254248943347, 4.64020948864345, 4.5514143048303595, 4.4320852625933185, 4.340146487252241]","[-0.0005905379292956384, 0.0012923784269451971, 0.03120273747496646, 0.14966936934667044, 0.41850833138504734, 0.8445280591353044, 1.3755664229922944, 1.9600218202264887, 2.5929622946299595, 3.28985264497884, 4.0280622236992585, 4.739671906291441, 5.367518546700467, 5.908846208116415, 6.387649646976271, 6.794653608413938, 7.07790401903668, 7.197083091983103, 7.1669403918451735, 7.029941357708424, 6.795791204492446, 6.431234639451475, 5.914006819605902, 5.276091839683204, 4.57611770897654, 3.8385514198949977, 3.0429259194944507, 2.177097648922768, 1.2800279669825159, 0.41378116969144685, -0.3977182358619302, -1.179552250554707, -1.9519904492287878, -2.686514312776353, -3.3324263821041313, -3.8772993673528617, -4.357597440173549, -4.804122492337228, -5.196662126470983, -5.489756416088767, -5.67392383354354, -5.788385369992284, -5.868159945957359, -5.898606354279764, -5.840006469600667, -5.687858068264177, -5.485387664119116, -5.270922447519752, -5.032871899375095, -4.734749800196823, -4.375807759362488, -4.003554014804195, -3.660535273894311, -3.3382513690962696, -3.0011756678068195, -2.6470159528412296, -2.319626364945634, -2.0563964511352424, -1.842440981701202, -1.6349999661142647, -1.4246659460595765, -1.2492029598138288, -1.1411288869599048, -1.0816006739728437, -1.0244416372997875, -0.9575161049133385, -0.9174174346821928, -0.9374260734043673, -1.000243184610099, -1.0602504437056268, -1.10401664154233, -1.1653324243234238, -1.2738859964674702, -1.408412073463296, -1.5194631888380172, -1.5909562243168693, -1.6560976840555668, -1.7460900206460792, -1.8427600423847252, -1.9006949951767638, -1.9080168998802947, -1.901566099455522, -1.9152100725473247, -1.9321599986378715, -1.9066741616411491, -1.8251364982202176, -1.7228145467747709, -1.633669189371176, -1.542859487212354, -1.4080214456857902, -1.2202147866501036, -1.020525330669443, -0.8490389694943588, -0.6958604100464072, -0.5211959280782139, -0.3163843985796575, -0.12155096757351203, 0.024627364163279708, 0.13388767804281088, 0.24855749844346064, 0.38041359286876286, 0.4925282246408642, 0.5490181296954688, 0.5636200584197013, 0.5796260621887086, 0.6089872966542771, 0.6147182932361375, 0.5611818618783673, 0.463520190553254, 0.3684710310983519, 0.2930365465911109, 0.20527638509702228, 0.07362817711236858, -0.08347991882942551, -0.21664542884786897, -0.30743487625863963, -0.3886884833146951, -0.4956874761666086, -0.6156199865731651, -0.7050077315741419, -0.7505984057173691, -0.7892770042689108, -0.859088471563382, -0.948674761601751, -1.014779571134227, -1.0434380939008179, -1.0704727452788347, -1.1330108166060313, -1.2189232042371145, -1.2839687657939862, -1.3127844107733608, -1.339712119369068, -1.4008101106129232, -1.4831506745263994, -1.541277343753677, -1.5580655453973122, -1.5662938298400206, -1.6011923960646754, -1.6494771034575137, -1.6655015132391782, -1.6324679185109403, -1.5846221370363764, -1.559755367130947, -1.5472644167839462, -1.5032917434888304, -1.4116947103502753, -1.3066348467841635, -1.2256883547756843, -1.1582798425879446, -1.060694299882698, -0.9170491850848066, -0.7624601964100748, -0.6364951568291417, -0.5312158203189483, -0.4055384323753515, -0.24568939702885473, -0.08811872585624769, 0.027274726259292947, 0.10973185791726792, 0.20374052004081022, 0.3278233451878805, 0.44990359130906654, 0.5327745936674546, 0.5865787172842829, 0.6554705006642507, 0.7566544690021146, 0.8556533043833952, 0.9121942920364745, 0.933848509175732, 0.9637852044747888, 1.0202293326360632, 1.0715235281240894, 1.0813605224711864, 1.0616091671249706, 1.0593186217297443, 1.0954220475987313, 1.139277351842793, 1.1539425347568795, 1.1493871728262093, 1.1701051198838286, 1.2345113598157695, 1.3095185322854377, 1.3553671602567192, 1.3792373666792628, 1.4239228670694501, 1.5073307731418026, 1.5961335195615902, 1.6500313764581733, 1.6755514440956176, 1.714924010330833, 1.7853035381986047, 1.8519145128702803, 1.8723293732973616, 1.8512265051613213, 1.8305347514597088, 1.8292083936275958, 1.8159981520202564, 1.7529720503553108, 1.6496343291764788, 1.5526454867413122, 1.4851445996173425, 1.4189399690885693, 1.3177287693752078, 1.1916161989402099, 1.0877872835253584, 1.0304831841767736, 0.9927817586412857, 0.9389899370989951, 0.8792090277438547, 0.86061133192743, 0.9072243540203999, 0.9907383951331212, 1.0722932699300145, 1.1572942983884786, 1.2874302021482436, 1.4810692736073179, 1.7042639015699024, 1.9128741814784007, 2.108286155784299, 2.3300563951579534, 2.595846943946526, 2.87150448032844, 3.1127719083469856, 3.321169170830217, 3.5369096714921398, 3.7789964351786693, 4.015352075067312, 4.204225183722883, 4.349296750868234, 4.492043526668567, 4.651952787943628, 4.796850335369527, 4.8844966041260705, 4.918595512961474, 4.9422826947766225, 4.978216773761233, 4.9976556155015714, 4.961365608751294, 4.876197537392727, 4.789257354704205, 4.7275161802790535, 4.665441155462759, 4.564871050164584, 4.4318313910625875, 4.311775880403729, 4.2302248504693125, 4.160843833027684, 4.065032133854402, 3.9480883945207097, 3.854045890640009]"
Right,"[-0.003878540464513931, -0.02365751086096684, -0.05932133535967956, -0.06333815247820393, 0.043913574484879536, 0.30099736878884553, 0.6684763342750694, 1.0838859139541486, 1.537136194628799, 2.0655405673330147, 2.6780802655198217, 3.3154461096869703, 3.903004385206316, 4.425430756252954, 4.921257525383766, 5.4053727314762625, 5.826186137495512, 6.116969954353422, 6.271041198222576, 6.337616395423112, 6.3451323971069655, 6.2581304699991165, 6.027198234762295, 5.662735145797171, 5.230028025708236, 4.771889919155228, 4.264652445769343, 3.6671095355889065, 2.993600577052348, 2.3097290094972323, 1.6567060099478113, 1.0084217758278555, 0.3208874979709435, -0.3935969706683409, -1.070007958827773, -1.6673597708634134, -2.2135650816205725, -2.7568738412358016, -3.291012179376139, -3.7574039427117896, -4.121417737037973, -4.417519886977516, -4.700344343945289, -4.968849321359357, -5.16829293870569, -5.267013474803662, -5.302228165030556, -5.331686097546026, -5.35776596683354, -5.328331282829367, -5.212564392003969, -5.047438809459436, -4.89118828788105, -4.74861152329413, -4.571420214635964, -4.332683754968002, -4.072670228679726, -3.852016634175925, -3.6757777926131894, -3.4927986316815804, -3.2710054003373443, -3.044807173382651, -2.869218419453773, -2.74420166682512, -2.613966391836584, -2.442713335139615, -2.263143677877906, -2.130654410223542, -2.0461647245074346, -1.9538782993431596, -1.8165345183738282, -1.6646085477582346, -1.5521382029301094, -1.480724107885635, -1.3967740197031162, -1.2653476565646997, -1.1186514750429524, -1.0123833211137026, -0.9505905245177928, -0.8827584255295733, -0.7767206990806699, -0.6668051148230916, -0.6099908043047435, -0.6097105495769028, -0.6123107099169829, -0.5812268062527437, -0.5471376848959153, -0.5649270668404824, -0.6368370692998724, -0.7083024361525077, -0.742724406195066, -0.7724011633968075, -0.8547776180778328, -0.9937364117233756, -1.133727228413818, -1.233807833675428, -1.3195151410989183, -1.441410886848189, -1.5980711830154632, -1.73029521086346, -1.7948551817564748, -1.8169656374266197, -1.8500095623126072, -1.8989284421049888, -1.913080075016751, -1.8578892974569499, -1.766047241569595, -1.6963767074512361, -1.656158092979922, -1.5939303955846071, -1.4727159402768848, -1.3231986577799262, -1.2037153580695303, -1.1224572223817404, -1.0296281436587265, -0.8906220174105783, -0.7391821540599608, -0.6363290194116757, -0.5911317899054183, -0.551839090723405, -0.47844937153301714, -0.3965606818574656, -0.3585401257711851, -0.3661411238321648, -0.3619272155429485, -0.3018047485012403, -0.20957337531024223, -0.13911281255730046, -0.09703142423961708, -0.03232718414244573, 0.0931094440279594, 0.2503195085334937, 0.38099317585351855, 0.475776386617099, 0.5850640154635585, 0.7472092525429161, 0.9327280042587063, 1.0814947930446124, 1.1818171344541497, 1.282521062330261, 1.4216959827570008, 1.5706318265508799, 1.6708931433827274, 1.713506282196704, 1.7511659777774184, 1.8270536799700494, 1.9181866942535635, 1.9711461426932146, 1.980317564629786, 2.000209006692785, 2.0747613088519756, 2.1805918111567735, 2.2619208793644248, 2.3086497852227694, 2.370106431896147, 2.4859240307869186, 2.6294684439508273, 2.7424533250300556, 2.813236240564038, 2.89065551264639, 3.0143186495047303, 3.157231805844276, 3.260152806813039, 3.3105184729229222, 3.356915925145131, 3.4388255521594147, 3.5283086799063312, 3.5644593059960243, 3.533236972124996, 3.482970034018308, 3.454883588881785, 3.4243700521028586, 3.3338472477139476, 3.171703117616289, 2.9883602059467194, 2.8273792563481948, 2.6662812800727806, 2.448504682197836, 2.1623684510605017, 1.8585855688124866, 1.5826882768510586, 1.3155599382871515, 1.0045092994250808, 0.6421807186657134, 0.28432598366089223, -0.018220035872218432, -0.2801510631925339, -0.5517082249875784, -0.8400764982789042, -1.0914500704611783, -1.259314273666405, -1.3651985605670234, -1.4677895766690199, -1.582912336116351, -1.6641672814134836, -1.6699893885070196, -1.6245371150675965, -1.5881909674035342, -1.5781348188502307, -1.5483982823971019, -1.45663017280458, -1.325818993044777, -1.216361254725598, -1.147505737197207, -1.0763546921880334, -0.9628669604053357, -0.8308168889716399, -0.7396994626342348, -0.7057723907487343, -0.6810519151913468, -0.6193638950740024, -0.5388601259560346, -0.4949035144541085, -0.5010700045468184, -0.5079318250391225, -0.46954537520832673, -0.4062888647663385, -0.37699733615272635, -0.39844018436360784, -0.42242374472925803, -0.4012106680843317, -0.3509251734490135, -0.32557525070888005, -0.3379678791166043, -0.336927176309473, -0.27245455559295806, -0.1598024468485164, -0.05486450538137433, 0.024773917409220303, 0.12443685115158587, 0.2889418555018892, 0.49887349663913483, 0.6953354253741963, 0.8593387594164597, 1.0361491886192198, 1.2709263551114418, 1.5439542488134066, 1.794448084441683, 1.999805599899446, 2.2007143063356125, 2.437271333062654, 2.6844646431409274, 2.8770105715466343, 2.990208137648551, 3.0666372874952685, 3.1531017679385513, 3.234764531629935, 3.256931082578376, 3.2037174916690674, 3.124339913464155]","[-0.0031244197123007737, -0.019371571022274346, -0.05030266292554969, -0.06071914131616042, 0.011007118462375218, 0.1966293304991757, 0.467824480504255, 0.7770968930635263, 1.1162863175852624, 1.5142359340538065, 1.978963575848823, 2.4657427261773863, 2.91676578898665, 3.319142137617593, 3.702286197304744, 4.0788852295631415, 4.410780432375617, 4.647018452646634, 4.781770492204487, 4.852494094064838, 4.881496414993535, 4.841626113772207, 4.69356602181557, 4.443175251330558, 4.1392902319459495, 3.8146918809266026, 3.451040777682465, 3.0154696027335604, 2.5175591435546494, 2.0076283000313424, 1.5186736514890526, 1.0317425161208575, 0.5126471424302963, -0.030458762427088004, -0.5482431569173514, -1.008724137550871, -1.433003924901186, -1.8591291477507639, -2.2839672029724625, -2.6631785451838823, -2.9689934029429423, -3.2259148025236755, -3.474548369215654, -3.7133769686936375, -3.8992219074257264, -4.006004105501233, -4.0611659270591645, -4.109516390612498, -4.154181096327193, -4.1556137280094845, -4.089379445238592, -3.983126321767031, -3.8819356865014925, -3.7901904771806585, -3.670316451144572, -3.4999245174299176, -3.3086928113129943, -3.1436830503707824, -3.0103359353506676, -2.8702797480714253, -2.6985934122581057, -2.5214088818552227, -2.381863288614568, -2.28149775939346, -2.178093169562544, -2.0430895849299304, -1.899941243439116, -1.790466526781529, -1.7155605717334765, -1.632176201758739, -1.5106697343717315, -1.373844628383722, -1.264279648602951, -1.1854508376377453, -1.0979231667984095, -0.9753010696344973, -0.8424599239901909, -0.7430967742111534, -0.6814923916469979, -0.6188914251299593, -0.5293125622579282, -0.43796857696224833, -0.38890370399781204, -0.38606449351323135, -0.3890464962223632, -0.3694603825131253, -0.3505826033313042, -0.37548201369440903, -0.44749459275885783, -0.5253933146748295, -0.5800540386808279, -0.6346159801985323, -0.732336086065061, -0.8760547475610565, -1.0223219385748052, -1.1377564432802956, -1.2401111144631614, -1.3677040932168438, -1.5198279240844386, -1.6507497780721678, -1.7258283707831197, -1.763053614961791, -1.80330662247502, -1.850931569137174, -1.8667769942817358, -1.823024426160032, -1.7439489064514646, -1.675544273497053, -1.6253209769937484, -1.5551719305394727, -1.4370177430284912, -1.294822370921338, -1.1751174052639044, -1.0867924533127962, -0.9933698782542137, -0.8682888696545206, -0.7366825920192639, -0.645319948308213, -0.601782811559076, -0.5663600302264484, -0.5071904445440722, -0.44267686651269855, -0.412881369677109, -0.41975084689903497, -0.41907221525588056, -0.3756180132595546, -0.3061637478516559, -0.251577995876346, -0.21689798456475273, -0.1620071982964646, -0.05559326582374524, 0.08175398581477111, 0.20513620691201595, 0.30592484382395924, 0.42166971744973125, 0.5816085606925299, 0.7626654390562635, 0.916792687880843, 1.0322744588968362, 1.1449152413927095, 1.2843606180167626, 1.4299532868317328, 1.537409288824847, 1.5994383288625613, 1.6564658516224426, 1.7426390209286637, 1.8412540465119491, 1.910924877947764, 1.9459760633644692, 1.9873870935912237, 2.0692079404266224, 2.1740405490850208, 2.2588290102207793, 2.3152992047612315, 2.381795431415867, 2.490381445920775, 2.622011091253171, 2.7317454730414283, 2.809162188684695, 2.8905195959018783, 3.006026998541074, 3.1348463126441857, 3.230229154657991, 3.2804561209777603, 3.3216141057177992, 3.384624605530007, 3.449455445109379, 3.469847707662211, 3.4343992465182964, 3.379779512056757, 3.3381311036364423, 3.2910267356401164, 3.193440158594967, 3.034631057277693, 2.8520063106916496, 2.679012752307699, 2.498832808498264, 2.267933490933956, 1.9772036509352802, 1.6667052332281855, 1.374006166406616, 1.0871072714116963, 0.7668300105756316, 0.40764773288083234, 0.05293283162609441, -0.25644948883109464, -0.5297558098845911, -0.8048202291151938, -1.087525831232142, -1.3363494460572838, -1.5137515534506747, -1.633908929592053, -1.7408856163988276, -1.8474722429714348, -1.9188888707244587, -1.9233376945780947, -1.8796224964589783, -1.835779170326532, -1.8077999442411965, -1.7626621476706532, -1.668695341847524, -1.543865747964901, -1.4355194284366917, -1.359805703121765, -1.2843119600179307, -1.1775390804555173, -1.0568454847084467, -0.9682824682868159, -0.9258342864186488, -0.8937431605972961, -0.8362951638596314, -0.7667488788238188, -0.7279473264920853, -0.7315387869753067, -0.7400371148000886, -0.7167831343240323, -0.6752084869372084, -0.6593050980177395, -0.6820554302130404, -0.706397331250173, -0.6945263456414068, -0.657466568612108, -0.6364885955308637, -0.6422839343499618, -0.6359935329173823, -0.5783620518218413, -0.47980959017650093, -0.38276966712555804, -0.3008862580954883, -0.19892546722030602, -0.04106019790015125, 0.15901495252683162, 0.3556817116791535, 0.532544943112498, 0.7226881961450999, 0.9601714147916027, 1.2293834278921167, 1.481872940746598, 1.697318411802371, 1.9045707045347626, 2.1338486400400143, 2.3662723466964053, 2.5511371187903933, 2.6678317078731197, 2.7479204765004397, 2.8277785872505774, 2.8970990182356218, 2.9140388900227663, 2.865531741250834, 2.788899653586668]"
Neutral,"[-0.006442090520696014, -0.046534340043091975, -0.15720822935589, -0.33508500776046946, -0.5177002325496864, -0.6439869782441138, -0.7191590314084353, -0.7927370797531443, -0.8788230365877929, -0.9278136649323212, -0.8879251487458077, -0.771456811141789, -0.6341270620346542, -0.49617305598269823, -0.31475496153049676, -0.04652719793136839, 0.28555047344600837, 0.6138180464006027, 0.907009817958027, 1.2005457033777134, 1.5358760976073995, 1.8933562269656505, 2.211667638657133, 2.4667295161843015, 2.7007411442951366, 2.960749545446788, 3.2304088445915227, 3.448121157505142, 3.586322734060701, 3.6832498914565406, 3.7842687192960227, 3.8746765432335977, 3.8977650079896655, 3.8333678806534692, 3.728225945366077, 3.635708628952642, 3.5470658949886342, 3.4084809538438776, 3.199866878183798, 2.966074321233066, 2.7569635440117963, 2.559013723639339, 2.313411753192213, 1.9962157319065454, 1.6510118929642204, 1.3298581849347784, 1.0239026760845036, 0.6791938766727981, 0.27547981129873733, -0.1409572077948269, -0.5158841361183022, -0.8570055976672393, -1.2195020602430304, -1.6273648413041428, -2.0383191194366646, -2.3998817779527144, -2.7184191038709287, -3.044882189683676, -3.3968159285359434, -3.7249428612722113, -3.9712553703277536, -4.139325857077893, -4.280380475442826, -4.414990207681967, -4.499078393298305, -4.481574416664444, -4.374191118700537, -4.2367009085428435, -4.097626545066987, -3.9189685069820825, -3.653245796682768, -3.314565139962724, -2.9658835459374586, -2.6400050725401343, -2.302853444492257, -1.9092171947775114, -1.4742678772040563, -1.0626498835988514, -0.7102838359437555, -0.38616443227715536, -0.04614734150027289, 0.29643747002614873, 0.5819865167500211, 0.7825705751636178, 0.9389809856643296, 1.1054143642800227, 1.2774931367891895, 1.4024738885566421, 1.4568934620722302, 1.48374591535935, 1.5373574668142282, 1.611841768073191, 1.6519811734392533, 1.631848861676417, 1.5933950405983524, 1.591995354408482, 1.62361335560945, 1.6335597029471955, 1.594336785349924, 1.5451075317298546, 1.5380523240373805, 1.5647557417353255, 1.563612502649221, 1.4983420068563191, 1.4004578567667068, 1.318442382198782, 1.2451634357475996, 1.1248420774322767, 0.9300434690417205, 0.7020550057268338, 0.4983786203551972, 0.31913436672311946, 0.11346577262338542, -0.14353251252941845, -0.41032829698633577, -0.6313944719640858, -0.8103499264025231, -1.002791416608943, -1.2384362490024614, -1.4790846634250556, -1.6698191786381358, -1.812942324665073, -1.9627709866404075, -2.1485574790085593, -2.331862819259186, -2.4573390886689594, -2.5274520818502424, -2.5987566780381712, -2.705042066115311, -2.8128622648368946, -2.8702710989869047, -2.8808594630945663, -2.900280089198077, -2.959871636704065, -3.0226201339637555, -3.032327757639905, -2.988440130764502, -2.9434539909293562, -2.9271058518470454, -2.9029377338138147, -2.8177718553611157, -2.6757686761734476, -2.5347117870724105, -2.4293025646834394, -2.3264180079804646, -2.1736240107611593, -1.9742640041399682, -1.7858300273924215, -1.6439846148778088, -1.5168465293184, -1.3525535807352753, -1.1548441152224314, -0.9826853361510075, -0.8742207932796191, -0.7994045297891716, -0.7062652309812165, -0.596233887489916, -0.5239111559228604, -0.5215780710643685, -0.5526952054381127, -0.5587948551437876, -0.5355315079609682, -0.5335252147319807, -0.5836568931370039, -0.6506332610099435, -0.6791842077250294, -0.6690027373601879, -0.6748146845866358, -0.7309602078253192, -0.8036818501803964, -0.8367287709693301, -0.8276419997089306, -0.8297507950101135, -0.877224726134159, -0.9363576731362855, -0.9503942606464761, -0.9166395329503985, -0.890056175716154, -0.9085552821467218, -0.94284526345416, -0.9397070292009602, -0.8983276287223418, -0.8739009744918889, -0.9034519579320204, -0.9561173235358069, -0.976617901007728, -0.9620788985616855, -0.9661478757523696, -1.0247836695986052, -1.106292434825491, -1.1545787306009743, -1.1657240964044604, -1.1923104418887078, -1.2695144593395753, -1.3645436019244244, -1.4191877726168514, -1.42717795978524, -1.4400222938591014, -1.4933591723631707, -1.555355699577376, -1.5687845422812643, -1.5294559924927853, -1.4932603234167345, -1.5020051937594872, -1.5298517243145398, -1.5234931714330742, -1.4795191690172942, -1.4515888209889454, -1.477480285614547, -1.5264455083347457, -1.539331001361461, -1.5062187755197556, -1.4749416105833006, -1.4795963939841386, -1.488729503014838, -1.445306145127688, -1.3432094071804386, -1.2344935447326861, -1.156776511760654, -1.080116800372707, -0.9466037621750729, -0.7484026432930477, -0.5370576910117961, -0.35155045634473936, -0.16440894130300876, 0.07934885607210163, 0.3833814252839147, 0.6896556334950219, 0.9513295969754836, 1.1892400945189365, 1.4550314074649577, 1.7529619674569403, 2.0287903006164925, 2.2409493460809244, 2.415636490214638, 2.6095234332769905, 2.831365058371375, 3.0304412176010374, 3.167355935186606, 3.26906639887693, 3.3921217793504184, 3.545012434522505, 3.6766141867910846, 3.747018690492041, 3.783721593671544, 3.8455686868865087, 3.943907587452486, 4.029323088871024, 4.0617402296466025, 4.066856871547316]","[-0.005068528344389159, -0.03672053411521527, -0.1246683405176107, -0.2678312282606938, -0.4187737579414073, -0.5296693621355343, -0.6031244192972705, -0.6767194559325143, -0.7617739801633672, -0.8201603964283741, -0.8105953771267913, -0.7404205250697231, -0.6512890593904785, -0.5586844741951147, -0.42924312838314904, -0.2278044560074406, 0.030189764147493747, 0.29342213144908413, 0.5368238240546432, 0.7864531138990998, 1.074051998720492, 1.3847705583610264, 1.6707074515359324, 1.9114722066016583, 2.1378310759642147, 2.385405836437201, 2.64152270135466, 2.8579780904139227, 3.012038997425563, 3.132037254288818, 3.2529792385309904, 3.3640668247863417, 3.421168069587676, 3.4070709281875367, 3.3562076707831103, 3.309365837867446, 3.2600980250009, 3.1663373835560833, 3.010895224471909, 2.8271022825563534, 2.654003055029392, 2.482866536519623, 2.2691996289530607, 1.9940000346252305, 1.6902575527739145, 1.3986457094489424, 1.1134783532629626, 0.7934170646849452, 0.4219257576773998, 0.033929538329971365, -0.32812071068553905, -0.6685699569379722, -1.028736252605654, -1.4266259900015257, -1.8288740304078601, -2.192977892672161, -2.5211057437672935, -2.8506352799670367, -3.19448514427836, -3.5141709790113964, -3.7634455313529998, -3.943024791392645, -4.091347182160007, -4.2245387406217105, -4.308746634181034, -4.303215954712414, -4.214782522830774, -4.088435113801324, -3.9468174673065732, -3.7618357395188013, -3.4974521543931587, -3.164980573509183, -2.8146818495733896, -2.4750722274566215, -2.123142341853054, -1.7259637735535307, -1.2961619697025526, -0.8848178282075878, -0.5216239803776261, -0.18450882640354394, 0.15988711049340054, 0.5013311904090187, 0.793236508670816, 1.012384708172931, 1.1887483113589496, 1.3640789205303463, 1.5359380988686553, 1.664042905638098, 1.7297269800692447, 1.766015468220985, 1.8164632985799471, 1.8792541135692318, 1.9136428630347382, 1.8999204804490546, 1.8703607969312088, 1.8684489608435797, 1.8922728230179473, 1.8998155377817056, 1.8685647918196082, 1.8271995158625032, 1.815491978451746, 1.827195651814236, 1.8144764603071053, 1.7481085652134425, 1.6513052701352535, 1.5616648287791577, 1.474779481175574, 1.3480702670578921, 1.1596076255168555, 0.9404418717447243, 0.7354097350450957, 0.5459831491148179, 0.33367414152212405, 0.07891706281475308, -0.1862895051049236, -0.4174689393259996, -0.614810186727027, -0.819605271097771, -1.0549054723135214, -1.2918665485988186, -1.487835786026153, -1.6436652989536924, -1.8011619395197158, -1.9841200270602712, -2.1641949741920143, -2.298686827874917, -2.3883631564458483, -2.475932322790868, -2.587470497319373, -2.6973754909950003, -2.764887758751229, -2.791517339211623, -2.8198404492477493, -2.8751366736978525, -2.9301545002099374, -2.941581778600721, -2.9080568280564876, -2.8697403350006425, -2.850384053914695, -2.822447500375347, -2.7438431936116103, -2.6157219128758697, -2.4815798160639133, -2.368901209293199, -2.253518162862747, -2.0956097359078285, -1.8978006191582608, -1.7053381155260467, -1.5480554110658886, -1.4039076894810023, -1.2341497636325585, -1.0416334139708852, -0.8717969927595277, -0.7547646588975567, -0.6681361359994753, -0.5716170662337845, -0.46537916463148576, -0.3912844824133117, -0.3752431651716961, -0.39022029958982785, -0.39102666919802687, -0.37322100023402527, -0.37529738006310254, -0.42167181363470263, -0.48553447645372216, -0.5230136212569505, -0.5315517400681529, -0.5519009256986465, -0.6107646168269412, -0.6828412305467282, -0.7245301185781727, -0.732941102144423, -0.7489249563241174, -0.7999141425741527, -0.8611852066660504, -0.8889224253002794, -0.8796978537554878, -0.8746160849888724, -0.9026291111490536, -0.9412836341332422, -0.9489906285255643, -0.9240740910571219, -0.9089713426564998, -0.9336699060695679, -0.9762111834969716, -0.9947357187239305, -0.9868635859407391, -0.994283458609516, -1.0459627286498403, -1.1181888030083087, -1.1665200970823548, -1.185538163471108, -1.2142070601219075, -1.2797689356632418, -1.3576638375839138, -1.402870257577547, -1.409689456796059, -1.4177440408086568, -1.455854817883619, -1.5010871472236431, -1.5097041479448308, -1.4776729123507266, -1.4474514936978267, -1.4516755914871737, -1.4711744548455954, -1.4647451597209056, -1.4289295962728374, -1.4049472573128696, -1.42309412955683, -1.460990238641898, -1.4729588961313311, -1.4499992291703165, -1.4279617105557918, -1.433219497839218, -1.4415245399518426, -1.4073878710269128, -1.3235514237171628, -1.2284500956925513, -1.1511205169285859, -1.0692221930844426, -0.9380977242026347, -0.7509999684116337, -0.5477104307565241, -0.3598274227474576, -0.1681801206518685, 0.06867607583535573, 0.35380471179041706, 0.6425805210947146, 0.8979405252466677, 1.13461823007583, 1.3920129960761187, 1.6738217195488687, 1.9379912346166748, 2.15081647689658, 2.3304869725661774, 2.5198896677757148, 2.7261576978353332, 2.9103117137410663, 3.041202181421795, 3.1391852607357578, 3.249192189142377, 3.3802994617508375, 3.49482808175253, 3.5619759929768406, 3.6021989264718286, 3.660968871339719, 3.74795356530376, 3.8252760545165074, 3.860693495652413, 3.872089432699795]"
Left,"[-0.008019608339180143, -0.06225302469421618, -0.2308797613841447, -0.5555471876961622, -1.001172990721961, -1.4924238990713459, -1.9950847317510072, -2.5330746815551377, -3.120837572608801, -3.7072582915753927, -4.211011046398859, -4.600429495265594, -4.909316993276832, -5.168318850431689, -5.347195823025999, -5.387296440657991, -5.278536219049272, -5.07377230184477, -4.819310735083604, -4.496164569594669, -4.052885214795765, -3.484714732211444, -2.850050094916469, -2.201698259431055, -1.5278217298387062, -0.784214896298181, 0.026535973287877823, 0.8384809981981789, 1.5922509918822243, 2.2964177579940497, 2.9968297427326434, 3.6972189133414304, 4.340761642683219, 4.877723630113678, 5.3255384148842495, 5.738286742388254, 6.1278855517487045, 6.445458485311292, 6.64800720785297, 6.757917474872556, 6.832878080431328, 6.887659575324278, 6.87577183307144, 6.757006182808254, 6.558223272835448, 6.343322365296899, 6.133562664391093, 5.887677937877925, 5.568908482538973, 5.206359750405909, 4.865458500086788, 4.567431128106136, 4.2682112159825465, 3.9257919334343114, 3.5632358002319506, 3.240869127604583, 2.976912663139501, 2.726373095186318, 2.447564413459986, 2.16476459825617, 1.9404768981275993, 1.7953751091187087, 1.685506802341024, 1.5669879982118573, 1.4580851399704216, 1.4128274148773698, 1.442876002413982, 1.4957798918866274, 1.5205748564746386, 1.531248499304553, 1.5809006022974472, 1.6825820210895017, 1.786018039666132, 1.8422986810234079, 1.867289983394187, 1.9157243107649151, 2.000945433090635, 2.070764266940955, 2.073431798507613, 2.0234660797193555, 1.9772821894158596, 1.9532047541488282, 1.9061445979989458, 1.791404335328707, 1.629272802928881, 1.4809435587239932, 1.3687922855265242, 1.250321927830555, 1.0807709075804723, 0.877303576013901, 0.6961608573469675, 0.5547694112415229, 0.40659144311985074, 0.2042223635935443, -0.03563004386523971, -0.2551045170885118, -0.43470114254159853, -0.6200096127149664, -0.8587354854926161, -1.1347770562506412, -1.3905669265168399, -1.6070142219246009, -1.8307035608909246, -2.110286440470645, -2.429328406183231, -2.7278067531542547, -2.9821554851450855, -3.2339957968270028, -3.52855611069117, -3.8479793388823964, -4.131653836894657, -4.3553416955428474, -4.560201085636436, -4.792156084171438, -5.035671252117027, -5.233499676892279, -5.364986518648948, -5.4746469738956876, -5.610734295798466, -5.757788999904733, -5.85612536127428, -5.881493049030723, -5.875614418290752, -5.885830381143933, -5.897390018507394, -5.852395788235299, -5.729636267186834, -5.575247420852975, -5.441449201066462, -5.317492071703782, -5.147597259306167, -4.910429263326478, -4.65068880394665, -4.419603361516238, -4.20658942051341, -3.9565669037237967, -3.6490291588925174, -3.330299617179662, -3.0550417428294168, -2.8178099414953977, -2.5685443552883953, -2.289684317712272, -2.0278309323985013, -1.8353009403635951, -1.7016399269277827, -1.5699343888472868, -1.4159207620914458, -1.2813515725920297, -1.2156759228619194, -1.2066092127342927, -1.1960021473041706, -1.1595603237929026, -1.1406371456996567, -1.1911229851639291, -1.300464257490603, -1.4099431900704076, -1.4915747295308392, -1.5828361975436565, -1.7296223211687902, -1.9165156953249607, -2.0810073543070757, -2.192233578752166, -2.2864493106958435, -2.4111280028191686, -2.555015773339619, -2.660436781758108, -2.7006362807455844, -2.7153414496569894, -2.754667924462865, -2.8082607648229896, -2.817614173479342, -2.754785062110841, -2.659577426616579, -2.5842170999876544, -2.5219978194368196, -2.4188308493567092, -2.2520408569066603, -2.067692461327624, -1.9243498121895755, -1.820196725923779, -1.7029864299499877, -1.547590361813036, -1.3936413254612035, -1.2912037401324596, -1.2296623888930753, -1.1485709394582955, -1.0160656341622598, -0.8678220202637021, -0.7537927201442471, -0.6665546117519625, -0.5499661746592892, -0.3758849107985043, -0.18309278236284854, -0.02423836975125937, 0.10619769555955827, 0.26317006013030664, 0.47338795207724615, 0.6954087849417192, 0.8726101578366752, 1.006088430978025, 1.146688078972943, 1.3172952975407952, 1.4730388318096175, 1.5551730196659719, 1.5650841124615908, 1.557257024461478, 1.5617661693747777, 1.5429486668913341, 1.450943139944684, 1.2945244952156827, 1.1341486957603593, 1.0044777650277865, 0.8723171871433806, 0.68727174777041, 0.45523536416430943, 0.2336693139095587, 0.05553363049375548, -0.11299649484226393, -0.3220212940586862, -0.5640714102919446, -0.7790144361133571, -0.9310132219452498, -1.0519480407424453, -1.1917193891781608, -1.344381248254649, -1.4527035619075832, -1.4849843198007875, -1.4778907958116179, -1.4856244428865466, -1.5050979362695216, -1.4798675998981707, -1.3770523841303657, -1.231790372150499, -1.0983638264342517, -0.9755494993078173, -0.8091275986180335, -0.5679380590008805, -0.2893173629800003, -0.03195673949539923, 0.1986568117990828, 0.44960958632509573, 0.7460027242523211, 1.0458551860474472, 1.2880243408444585, 1.4679472093312143, 1.6370303813991995, 1.8269276858673038, 2.0030523074628945, 2.1112996835763624, 2.1528919229322128]","[-0.006158770381222393, -0.04793194316644213, -0.178320164543253, -0.430595898485653, -0.7788266453683732, -1.1647125717953686, -1.560452284103325, -1.983492647203187, -2.4453670527282085, -2.907530416728953, -3.3071468488592757, -3.6187334303076, -3.86785989935575, -4.078955878599572, -4.229527152527339, -4.273564762743121, -4.201175865527887, -4.051491435036382, -3.8600765155919987, -3.6126930030561653, -3.269131445821131, -2.824277995341731, -2.3223529972492543, -1.804864974804559, -1.2642118672400784, -0.6669869881012573, -0.0146548101939743, 0.6424428755707368, 1.257910861606888, 1.8371804938694822, 2.4152611858453383, 2.995564862558922, 3.5341694308729075, 3.991034875798505, 4.377288576183446, 4.7333485056858535, 5.0683657169515755, 5.344460065772182, 5.5273071461592735, 5.633105156576676, 5.706815445687198, 5.761480231488349, 5.76229205660934, 5.677735199526978, 5.527407428710831, 5.360383408175267, 5.193868595473532, 4.996466370768758, 4.739008217322407, 4.442816690590007, 4.15853620276539, 3.9042965264045506, 3.6479883796253034, 3.3578625588468185, 3.0515558204067474, 2.7760535280227714, 2.5466683612502266, 2.329420412661534, 2.0915133987018635, 1.8506460094281465, 1.6551900304464198, 1.5224993524778938, 1.4197835408987203, 1.3130770120582724, 1.2161172384588212, 1.1714198558070734, 1.1897465763430546, 1.2315817731876564, 1.2566951535806368, 1.2740283674371256, 1.3234737708105797, 1.41513267096812, 1.5099897570191843, 1.5687633721192924, 1.6016006645281777, 1.6497741439114293, 1.7242172810288139, 1.7855214961798538, 1.7935069787597513, 1.758517672746052, 1.7241034314114358, 1.7054789136960835, 1.6685051404733713, 1.5778775240517007, 1.447829157574688, 1.3251982264109756, 1.2281378981440412, 1.124569897410538, 0.9795404816100017, 0.8056483758514332, 0.6468298362001406, 0.5181349349750235, 0.384679119590146, 0.20921207332821723, 0.003041762292468775, -0.1900330049143122, -0.3547432274958737, -0.5263149804154637, -0.7428940201925798, -0.993861532768733, -1.2353250568198746, -1.4512394624871376, -1.6757244100926982, -1.9454493001171613, -2.2475208183382165, -2.5346894833928673, -2.7869239922069937, -3.0350546454901632, -3.3143682219833863, -3.6123305194964814, -3.882540117942426, -4.105376246859123, -4.311691819962107, -4.536959885403121, -4.769355939552042, -4.963702448982076, -5.102062442234455, -5.217374055478103, -5.347096154926476, -5.480363056333772, -5.571374760660547, -5.600530504301787, -5.599398844539792, -5.605300266335689, -5.608337058222787, -5.564246693226778, -5.455391408880132, -5.31577793073393, -5.185343897014718, -5.056431801689541, -4.886182146990905, -4.6574784739596, -4.404630856005497, -4.168567740784056, -3.9434291238258083, -3.688300917745437, -3.3877931855404313, -3.0781469773364734, -2.8030181886906576, -2.559885798081268, -2.3106313471998874, -2.0409749105492665, -1.786377001782057, -1.5881423585115044, -1.439974558981703, -1.2989544780703, -1.146140014788216, -1.0135944666089927, -0.9405095104962129, -0.9189683985032389, -0.9044706021400089, -0.8768197186100224, -0.8675469664153752, -0.9158815294194937, -1.013752244134139, -1.1153156898503767, -1.1973760909181692, -1.287442115617523, -1.4208666746631025, -1.5864777121714724, -1.735993212469566, -1.8443098454963547, -1.9380537439396903, -2.053430345491961, -2.181619507175583, -2.2770010293238556, -2.3168197382565268, -2.330136753342231, -2.3557640499866466, -2.386958944869548, -2.3792638316158445, -2.310756385253171, -2.21208113880175, -2.1250100838742583, -2.0467248865743386, -1.9368329094243109, -1.7774038957184075, -1.603179240488771, -1.4598729438575901, -1.3476818077460848, -1.227268990226321, -1.0788738106912206, -0.9324835456744722, -0.8271584629572999, -0.7557684647491669, -0.6718969211801777, -0.5498684172525259, -0.4159527843331148, -0.30827270806059914, -0.22096955535215557, -0.10966616645977467, 0.049411479825920424, 0.22792649458244796, 0.38503905122763626, 0.5234672202155934, 0.6843978298639968, 0.8881603270675669, 1.1022371366873358, 1.2809044756247658, 1.4220645215377772, 1.5629913140583085, 1.7212703572984083, 1.862834051222535, 1.9418830888700995, 1.9581562758125983, 1.9530738798534912, 1.9505775345292022, 1.924051042555675, 1.8347738246702647, 1.6884899896085699, 1.5315772345134064, 1.3918771267676675, 1.2451764524930695, 1.0532504114967196, 0.8210362978757075, 0.5942107881292031, 0.40065449344456283, 0.21642757341669494, 0.003436311742916587, -0.2331011963428864, -0.44675464561260014, -0.6085976934018618, -0.7419480398907581, -0.8854127918057202, -1.0354600941259378, -1.1480748476737972, -1.197098766912859, -1.2085851060974164, -1.2233835024344444, -1.239426271166849, -1.2132976946295457, -1.1189059060752697, -0.9828843528575817, -0.8481482497700199, -0.7158753656021872, -0.5457682715268675, -0.3139868922298774, -0.04927868485719955, 0.20217937230063399, 0.43461747364472103, 0.6834361565161089, 0.968015188363097, 1.2556640362345206, 1.4973514933499246, 1.6867048408012124, 1.8613443631638802, 2.0452531063328934, 2.2117671525966216, 2.3182151014943884, 2.363963832150148]"
Neutral,"[-0.007940993183596421, -0.06493029115381077, -0.2557833022414956, -0.658531106302586, -1.2743523931959615, -2.03235644108855, -2.869675247698196, -3.7830358728354927, -4.786426590660961, -5.8383958241603295, -6.843648749830336, -7.729935140878638, -8.497168402284842, -9.173125741598852, -9.737835783314381, -10.12126991741286, -10.277560910174657, -10.233459488289213, -10.043614015606522, -9.713951218182387, -9.198523003743844, -8.473361184638861, -7.585010094075756, -6.606191162867049, -5.559314822938177, -4.413164619964618, -3.156784364356099, -1.8479471059349635, -0.5680397727128366, 0.6557994807860723, 1.8552681255241623, 3.0471332404476925, 4.183199292904192, 5.193332651951096, 6.062357592511944, 6.83479123361758, 7.540965353510728, 8.145918961786265, 8.591394732521167, 8.873244322199298, 9.047802783225507, 9.158748459352864, 9.185215235090254, 9.082607978277338, 8.859047125871712, 8.580970495179372, 8.299418293330291, 7.997726226260511, 7.632374054001048, 7.2101295227107585, 6.794357314398894, 6.431557352920208, 6.09911273425314, 5.7462587725276535, 5.371992964515812, 5.032996607977111, 4.771199432705089, 4.5609373359907295, 4.348889554159996, 4.131732836999618, 3.9641940011260886, 3.886145786484576, 3.868353085630133, 3.8511919475581635, 3.8230762474327094, 3.8309331642426514, 3.9089293474207807, 4.024181534464333, 4.115057935424375, 4.169489452617654, 4.235312466516461, 4.348638533361736, 4.478944298385159, 4.566749870730746, 4.601571396388408, 4.631920200893546, 4.693510838368638, 4.754823927948564, 4.755524939766474, 4.6853375791606595, 4.595409626831042, 4.5270970347373805, 4.456087791988921, 4.3286769166370505, 4.139745040562957, 3.944377630783265, 3.786568492632796, 3.642293335526574, 3.455099343881784, 3.2154834570378625, 2.975230572101509, 2.777606623816837, 2.600021702958088, 2.3886553151195358, 2.136973015438002, 1.8991889797815702, 1.7197400702663117, 1.5754644257576729, 1.4099691273888766, 1.2123082471525777, 1.0310147644784138, 0.9043849591919297, 0.8034708918796696, 0.6669592467594612, 0.4804411730597167, 0.29153664669593127, 0.1406374071011669, 0.0026675943106511113, -0.17965524992860082, -0.4168033600344643, -0.6566159741560114, -0.853663358517224, -1.0291494828647956, -1.2393989911065546, -1.496569446747344, -1.7509010981411848, -1.958637682094377, -2.1414390654676936, -2.3546008937664737, -2.6079134688588965, -2.8486280960551085, -3.03024929503772, -3.1729657948189924, -3.332858542109534, -3.5230644960793143, -3.6962819346472315, -3.8125931641789066, -3.8987714912027513, -4.01677096565345, -4.18398263549625, -4.353873897829544, -4.482704373498564, -4.590170773887621, -4.730049510714707, -4.911410059060472, -5.079606560480897, -5.184177868606639, -5.241490670209714, -5.306526019944613, -5.393053137465358, -5.452426152836779, -5.439946319465889, -5.37678062563009, -5.321408310403058, -5.289935414444699, -5.235165550684542, -5.1131747510644345, -4.946021588254553, -4.794323757637358, -4.677915911704076, -4.554372926962969, -4.384666780444604, -4.19501225345175, -4.049051148934268, -3.9679169209866814, -3.907277321526635, -3.8222333968915336, -3.730641538844793, -3.6875935113630476, -3.7066806487291615, -3.737279596202825, -3.7299178080993443, -3.7007032778938083, -3.7063356629378177, -3.7638821147547787, -3.825456785838469, -3.842069581355645, -3.82818333778323, -3.8377395007755695, -3.8851333749425976, -3.9206040099006714, -3.8942204208888143, -3.820551038405938, -3.7548638775269865, -3.714186349987358, -3.6527311689033013, -3.525571803076673, -3.352697720309152, -3.1948682030897544, -3.074043724540388, -2.9473592116046348, -2.7701431234900156, -2.5613238850237394, -2.3809675508746295, -2.2508399215194004, -2.1274940474831965, -1.9652448381812064, -1.7830417937184393, -1.6433024122625284, -1.5716914042204735, -1.5280558115173335, -1.4679048633624916, -1.4090173544509526, -1.4108288509005433, -1.4950956643497193, -1.6171942883493102, -1.7272780482326198, -1.8368549871220239, -1.9989264363703114, -2.229593444373677, -2.4798874192683797, -2.6969500872573917, -2.890424794286446, -3.1123428527089345, -3.3779461853118846, -3.636372725041838, -3.831777952284938, -3.971374694620863, -4.10728702292181, -4.257953618934607, -4.37790658756694, -4.418128047407208, -4.39452091052226, -4.369893477837195, -4.373526948761537, -4.368265863457964, -4.309303191728304, -4.212519428726409, -4.137406617356191, -4.1082260281305025, -4.082459895980264, -4.010307600230362, -3.9035264614383323, -3.818936905470764, -3.779994711764175, -3.7450760967135466, -3.66610009255362, -3.5564390463380278, -3.4739653596311655, -3.4418538796084874, -3.4155985690139232, -3.3416451270278174, -3.227271896374475, -3.125645575280032, -3.0569917977368277, -2.974768153333798, -2.824042993003559, -2.6126575720811616, -2.397345391085082, -2.2038040622423978, -1.9906631232365726, -1.7064516810355599, -1.3605855194023206, -1.0106647771676762, -0.684457986048983, -0.3446729426214006, 0.05487959356105421, 0.4993624608969185, 0.926122668305652, 1.3028723074567097]","[-0.006044390488543027, -0.04960110797240565, -0.19614585113460978, -0.5069883850825523, -0.9849047812271506, -1.5762928037815922, -2.232225428176873, -2.949372069814795, -3.738758864928995, -4.56949702605878, -5.3685543908958095, -6.079337780617479, -6.700451642664802, -7.252542769894944, -7.719694061670225, -8.046567928641082, -8.195420707945289, -8.184771667167752, -8.056288980988711, -7.815357314506059, -7.426974719515215, -6.871872950543661, -6.185012058798748, -5.422838962462151, -4.604054619913768, -3.7052542145693224, -2.7169582763362996, -1.6823560332823035, -0.6643839793612187, 0.31438236609892556, 1.2769126826356114, 2.2357117927624586, 3.153242002093748, 3.97377687678636, 4.68298749495716, 5.313197280399891, 5.8872525926944945, 6.37827861800406, 6.741043306250049, 6.971921405825924, 7.114915286853375, 7.205577337454088, 7.229775980879367, 7.1537302777405785, 6.983128526502696, 6.768989254369899, 6.5516294664530506, 6.31930066085215, 6.038314496091061, 5.7128635873655185, 5.391741307947541, 5.112647479071711, 4.8604733799988935, 4.596897816826186, 4.320403878363777, 4.074016690050939, 3.890423765160449, 3.7503463011416898, 3.612021652817475, 3.471261483572107, 3.3691358439687065, 3.3365564582445586, 3.3515979042285835, 3.3682212282178625, 3.3768647873512236, 3.4136007029242137, 3.5056022516223493, 3.6281566433553962, 3.732832275339206, 3.808141113014244, 3.8891974040448076, 4.003430687256696, 4.127278523694713, 4.21382493165811, 4.253152285425585, 4.281833268083574, 4.328517636835386, 4.370632915765782, 4.362157740852581, 4.294425647823118, 4.206464679823739, 4.131025862391425, 4.050581570921622, 3.9238642051404895, 3.746053009562729, 3.5592006558511002, 3.398136703634691, 3.245791998831237, 3.0594845154046197, 2.832193007867886, 2.604729907064552, 2.412437819968318, 2.239872527282216, 2.0460300258788493, 1.8250110276998157, 1.617955313766629, 1.4595389257454343, 1.3323955755151644, 1.1921702805835253, 1.0284400109520675, 0.8774232247851614, 0.7692888341938442, 0.68290018122525, 0.57079052757922, 0.42018992964767676, 0.2662742651523331, 0.13982597650465323, 0.021528428111423636, -0.13376056200468156, -0.3359699693623952, -0.5460527942650515, -0.728471814788918, -0.898165163577687, -1.097619267668506, -1.335931800012986, -1.574076227259411, -1.776618347054864, -1.9584712952082555, -2.161798173225634, -2.39490681837151, -2.61759942125218, -2.7932939248253206, -2.936571105704388, -3.0909382748495773, -3.2679087367132524, -3.431713282147939, -3.5505421928737633, -3.6435369117161827, -3.758418852206887, -3.910106478751004, -4.064073245574036, -4.186511757978224, -4.291805732544162, -4.421392700985962, -4.583104353983799, -4.735080489465872, -4.837167273018167, -4.899976674126265, -4.964497110616321, -5.040800709554787, -5.09072075459062, -5.078381790155618, -5.018836302334421, -4.957398150506378, -4.908101718875514, -4.836027919105618, -4.707637681798587, -4.539999770918257, -4.381129201436124, -4.248666894270173, -4.11149150883557, -3.9392504688839836, -3.7512820588290197, -3.597098606766849, -3.49489522982185, -3.412179781157647, -3.3145294037021813, -3.215105437499915, -3.1565574192145505, -3.1505664738515406, -3.158961021092182, -3.142994757440647, -3.113560734721432, -3.113264835874361, -3.154917557396402, -3.2009731652951814, -3.211920418181762, -3.196911123771315, -3.196861247814013, -3.2236819197223667, -3.2398026193795886, -3.2063408155954676, -3.1336698949717174, -3.064555634001408, -3.0133005599964235, -2.945119440714734, -2.8241862600470995, -2.6642130389891463, -2.5117526033973263, -2.3851013365074323, -2.252716378741752, -2.080583557107275, -1.8832906868065038, -1.7081955510957414, -1.5743144906409725, -1.4500835252038087, -1.3007019146234597, -1.140214784230011, -1.0166335829053423, -0.9505506410414455, -0.9116871475225707, -0.865344702551738, -0.8245067002517317, -0.8354769670368114, -0.9168272186943796, -1.0356561671724194, -1.153406454155629, -1.2778127492929343, -1.4491625850414493, -1.6800128893955844, -1.9318526675224348, -2.1612136306298453, -2.3720570888231123, -2.6022430621869717, -2.8628264749913797, -3.114032823535581, -3.311220144121762, -3.458029693386379, -3.5940185609865694, -3.7343948353955057, -3.8453010862754127, -3.88902464869534, -3.8771601545699923, -3.858123363811501, -3.8556401551163617, -3.8422808501964028, -3.7836564941562756, -3.691678619453114, -3.6128922476927983, -3.567939936249104, -3.525830424244077, -3.4485983771821793, -3.344968763523866, -3.259115516663769, -3.210316138194571, -3.166941913411847, -3.090608868986635, -2.9895875558279386, -2.9075492954953006, -2.862811278645893, -2.8214945909941775, -2.7415454685075247, -2.627242142476007, -2.5191972247480408, -2.4338366924407637, -2.335902676264368, -2.182189360554048, -1.976864703936144, -1.762307037903156, -1.5581365059651944, -1.3324604282656765, -1.044744654896931, -0.7011938468604058, -0.34658881702125655, -0.004520060324011865, 0.35119563067109993, 0.7546148684032232, 1.1933795127006306, 1.6175274055012778, 1.9996647144816961]"
Right,"[-0.005622668453475322, -0.049387101595449734, -0.20877408279150939, -0.5734674808670505, -1.1706789835487152, -1.9367992021666007, -2.78068894840341, -3.661640248319941, -4.583000710433025, -5.517536864789626, -6.373055264216973, -7.050126625308678, -7.516386756789558, -7.7978345134606855, -7.901049144045885, -7.774736431613235, -7.3636149845092405, -6.679496823087845, -5.790335079799888, -4.741025254141277, -3.513714333305188, -2.0810999680566056, -0.4781719711522783, 1.2074021833672077, 2.913384887997495, 4.642824845831228, 6.412431993523796, 8.182455090128087, 9.866729873298482, 11.410933158073021, 12.83244569221506, 14.167165809994685, 15.396349950189006, 16.454113976166582, 17.30494452783205, 17.98420841157599, 18.54526675137822, 18.985145342672013, 19.250866907533236, 19.317584856421945, 19.230710547589297, 19.054183233205094, 18.79631394752994, 18.414959144478985, 17.894018758684865, 17.285077886278316, 16.656015436153154, 16.016661195359916, 15.323233250772148, 14.554422626026337, 13.753859264188009, 12.980825489910785, 12.237788016983131, 11.475422772576621, 10.66878340349308, 9.859740221218544, 9.106629973746294, 8.409723967572518, 7.714902506713315, 6.990477006949732, 6.27145643611766, 5.6101789265840125, 5.00131562072329, 4.3851035225670785, 3.724826621795728, 3.0522331433039653, 2.4189729128065665, 1.821492074361231, 1.2030217034171073, 0.5299927993719393, -0.16216145470571064, -0.8168645196819853, -1.4319032186176628, -2.05871521609879, -2.727463403816728, -3.4019794265350356, -4.026819239497854, -4.601421451066926, -5.178594102193529, -5.788666926144288, -6.393435663065247, -6.9336574590179225, -7.40525461706784, -7.859865985277793, -8.329677628076752, -8.780676849775773, -9.159470380442144, -9.469564370221633, -9.771554094695603, -10.106285791191112, -10.446096007743108, -10.740257289857254, -10.991063905352348, -11.255543553841562, -11.570832452416653, -11.906310051024775, -12.20861124610019, -12.477527979270235, -12.768325815635762, -13.117597284537624, -13.494834429835464, -13.846355369019875, -14.170890433273598, -14.522241031885642, -14.934982036764268, -15.37540220979281, -15.785275522892334, -16.158113093359134, -16.542693456998677, -16.96889429097064, -17.39821953338469, -17.768240038010845, -18.070954935163172, -18.357635531850974, -18.66349885022646, -18.95572835000712, -19.175708665006823, -19.31613668218415, -19.42620632689068, -19.53802245265979, -19.616083071123285, -19.599893221649836, -19.481455528693914, -19.31168006367443, -19.127924559223175, -18.90278086088074, -18.584417085163295, -18.17262835746442, -17.725180052431824, -17.28475251558484, -16.82661629350696, -16.299111316217022, -15.701058131486207, -15.089463653213897, -14.507078693512085, -13.929891483141546, -13.307600197291322, -12.641677199368132, -11.993100555100682, -11.408497589474791, -10.865780124058801, -10.313357928376718, -9.748150275794615, -9.224729039728118, -8.78316623207138, -8.395233309969626, -8.003335411320222, -7.598555020347703, -7.230717308593739, -6.937410967115284, -6.690008974073862, -6.43101265408859, -6.15107534582603, -5.899039274662755, -5.710485891701865, -5.55314620779518, -5.364992532435281, -5.133040855771469, -4.904716144827034, -4.716510322089562, -4.538526683563305, -4.3118220856936205, -4.027277809701673, -3.7370137664926233, -3.4821368567309037, -3.2357812270546447, -2.939201602243884, -2.5806474955631984, -2.2085623476014007, -1.861352266551421, -1.5108201533676038, -1.097725837076723, -0.610818130458938, -0.10097231453801214, 0.38840196365799784, 0.8787807646231158, 1.4229547069307955, 2.0270996426761485, 2.6365462255362218, 3.2057242705286626, 3.756218668866495, 4.342730894484703, 4.97381022092668, 5.596342977425593, 6.164820632804549, 6.699560569191817, 7.253114385179288, 7.831260370641758, 8.378072338957281, 8.846351398004117, 9.257198512415926, 9.667483139714022, 10.090523447015585, 10.478854638931807, 10.792167774710833, 11.056137239287636, 11.33020157646024, 11.628131702495011, 11.900155807146803, 12.100627680658363, 12.248051103102625, 12.395298963943787, 12.551931488153059, 12.666595596179832, 12.694662444388086, 12.65823763564913, 12.615543861371407, 12.58169773408008, 12.510030371257017, 12.359852467940073, 12.157043836843513, 11.963153716511442, 11.795356210193859, 11.607631352388125, 11.359169252162246, 11.076142608922964, 10.822270857985131, 10.61902741558879, 10.425029064710543, 10.202481748227001, 9.97862044690919, 9.816838669852586, 9.736890227755794, 9.693344131334015, 9.641183660642128, 9.598039888689527, 9.617450993860984, 9.710436127516004, 9.824310850010079, 9.909073339975293, 9.980527813138906, 10.093299069456407, 10.26125287547984, 10.43504354559991, 10.567652785379323, 10.6773170014676, 10.820403455563792, 11.011335404182319, 11.199977467564167, 11.337860307088704, 11.44233612408425, 11.57060817889942, 11.73951976274111, 11.90085318157071, 12.005424588493042, 12.067343227055972, 12.139637942338595, 12.234882349574036, 12.300125278463383, 12.280890352190909]","[-0.004142790684461041, -0.03664825570167984, -0.15581277586898407, -0.42972851243611077, -0.8790959082700021, -1.4542962745770358, -2.08327456201129, -2.7324730759113187, -3.40355620747901, -4.076211022712613, -4.680249861669193, -5.1387052643605955, -5.425412254569494, -5.559903433646667, -5.5483262817640195, -5.352928203782369, -4.932376682345364, -4.29686495738278, -3.500982773450687, -2.582843107292888, -1.5320164308565722, -0.32931838162153326, 0.9973494857111973, 2.3788845676101573, 3.7649755360355357, 5.156362636687959, 6.566226468204377, 7.965299067646129, 9.287846857722684, 10.491527755142101, 11.589375567451157, 12.610002435332262, 13.540673431326809, 14.331536211378648, 14.954950507350759, 15.438040135949791, 15.82332890096086, 16.11116115117693, 16.262979340051174, 16.260669932510382, 16.139909043609805, 15.951468406815309, 15.703615409841689, 15.364543076792671, 14.920887989621477, 14.411184724411669, 13.887617297520592, 13.358237146217562, 12.788814114552451, 12.161233835695157, 11.507831199696511, 10.874705160941403, 10.265104756045048, 9.641460550046304, 8.983443924995754, 8.32186927472685, 7.701221048783282, 7.121814601996903, 6.541077036597926, 5.93232885240559, 5.320336707462957, 4.744861779916391, 4.202738421350659, 3.648776209274729, 3.0544965709314056, 2.4439695368382672, 1.8576283539468932, 1.2939957499238517, 0.709655583372296, 0.07772616847341851, -0.5753838825021376, -1.2053870561212534, -1.8087423080633016, -2.42371977408402, -3.0730712739004957, -3.727995314378859, -4.343357170781019, -4.915659880341991, -5.483613954434986, -6.070197100443693, -6.6459042381229665, -7.164025520347423, -7.619797708333863, -8.05245117650884, -8.487869612417853, -8.901304929766411, -9.251910639562993, -9.54158581912452, -9.816647795156314, -10.109550636727363, -10.400415956726647, -10.65070895270037, -10.862118673967416, -11.079402193337955, -11.333488527561713, -11.603371685912862, -11.849291292768612, -12.071381190511602, -12.312847659075487, -12.603184955311008, -12.919560051275766, -13.219640706796781, -13.500671527584927, -13.803311473831855, -14.155016246400919, -14.531010078528197, -14.88647800057879, -15.215416739822103, -15.554780871327239, -15.92793738275941, -16.305398785403668, -16.63763783660397, -16.915724576989305, -17.17685964053453, -17.447396783405566, -17.70182849676712, -17.893881005511503, -18.016109592314024, -18.10536329516981, -18.18670789265161, -18.233398849075456, -18.198357870543987, -18.074129488544713, -17.899278095817863, -17.703037604671408, -17.464672013589734, -17.14345298726039, -16.737883640535074, -16.2923065655159, -15.84127308245479, -15.36797492388905, -14.833863572905102, -14.23843028922056, -13.626703029867713, -13.034176420582298, -12.445178315865633, -11.822353558436589, -11.166730921468115, -10.52531698367784, -9.935321358405417, -9.381444454205848, -8.824667146353022, -8.26247939377572, -7.737397175609658, -7.282027822104283, -6.876491778375566, -6.47697181888725, -6.075970462105033, -5.711451462669174, -5.412667534346838, -5.157495883298907, -4.9001707920597255, -4.631193443465236, -4.386684190368214, -4.194022748700263, -4.028715896949052, -3.84236517096042, -3.6235831826752474, -3.408252313868161, -3.225249084972802, -3.0525518447149125, -2.844313915562225, -2.5915371557745175, -2.3325507909107728, -2.0985524525626715, -1.8689312248939132, -1.5976212798855158, -1.2739628796916804, -0.9344283002405973, -0.6093260692305194, -0.27814530066370935, 0.10455896589519398, 0.5481660510095026, 1.013651200240929, 1.4666653842068627, 1.9229238829102542, 2.4234930540387722, 2.9742133667277812, 3.53305010315853, 4.063274368949351, 4.579383812781089, 5.122441949919448, 5.6989071111183875, 6.267119210133387, 6.789844568182161, 7.280272122296083, 7.777960238563537, 8.288208202968235, 8.768887088970587, 9.18341084277381, 9.54736606365259, 9.904945403530292, 10.26783122778943, 10.600349679047213, 10.870861971747217, 11.098030408600607, 11.32749062226867, 11.570620225589664, 11.789366387471091, 11.94776776550134, 12.059225017383142, 12.164755118999892, 12.272857932319312, 12.344409094392176, 12.343904695189849, 12.286691604542284, 12.216985488812497, 12.14694008639708, 12.0408483726751, 11.866558180834545, 11.643209768164525, 11.419102451967774, 11.210113922079472, 10.983433628520288, 10.708911142406578, 10.40733555497718, 10.129238844969223, 9.893473463627743, 9.669874876610265, 9.429564597274293, 9.19319762883606, 9.010187102023338, 8.897255987980316, 8.820503591283341, 8.745245187968976, 8.68479645739717, 8.680960534104088, 8.743329328044638, 8.831485678118042, 8.905373723275261, 8.974985843757167, 9.081197761177464, 9.234587130758882, 9.396713809714129, 9.529714967138716, 9.645789331752894, 9.7880778475228, 9.9691472174527, 10.151743246144179, 10.298380492989963, 10.421434436841082, 10.564637322971976, 10.741354385005252, 10.914006936520309, 11.042431620640855, 11.13436930601165, 11.228440061917354, 11.333263735017681, 11.40688977431273, 11.405442844061326]"
Neutral,"[-0.002505019775668451, -0.026842497543904532, -0.13277727574396528, -0.4125947016545296, -0.926215517874966, -1.6439522044282353, -2.477026084583776, -3.363007896786203, -4.296632596017201, -5.270491716090742, -6.213572007204668, -7.018069287936825, -7.6217345380772485, -8.035423845343246, -8.280057110683089, -8.320874125693138, -8.089795120007665, -7.564774988204306, -6.79649161910271, -5.844865885672732, -4.712020555222239, -3.3631089394955325, -1.8050404436753524, -0.11401499903945478, 1.6268517523413948, 3.395485991841497, 5.21250163121249, 7.063638389469361, 8.871597037830952, 10.557556719664717, 12.10810127398804, 13.555283867916842, 14.897715434190786, 16.071841407544525, 17.01372243865012, 17.72668597610982, 18.261521778794076, 18.63676715361612, 18.809018974323408, 18.734038923997332, 18.434293980406437, 17.979724370969734, 17.408213904375543, 16.69477097937829, 15.811169913396498, 14.793113490894598, 13.721447771010162, 12.642286478717722, 11.534439229731902, 10.367797794158776, 9.171656318624628, 8.01826449357793, 6.944209972925819, 5.918212138556555, 4.900011844874825, 3.909079025214396, 3.008241955619269, 2.2249904832242464, 1.5190460229118798, 0.841371429357423, 0.20313480163349595, -0.3412130903157049, -0.7731722075836842, -1.1421039351307627, -1.5055460166613557, -1.8593809914273152, -2.1529347472232985, -2.3673350611179558, -2.548944719874271, -2.751362227095342, -2.9657397785049397, -3.1356853352863254, -3.23649081671374, -3.310566935116185, -3.410969567737993, -3.531065368961208, -3.6176983599316372, -3.6496031783071885, -3.6724095803365344, -3.741159039989725, -3.849122997979066, -3.9407648882443027, -3.990425554677131, -4.038327115369611, -4.134548294143315, -4.26887579346112, -4.384161664507701, -4.454907579616702, -4.522613418843321, -4.638733564252107, -4.793307162519341, -4.927166804038279, -5.010572402650723, -5.080205794067297, -5.183706827583592, -5.30839840488261, -5.392854908252048, -5.4059880509248615, -5.386151993336171, -5.38731473693224, -5.406589117148542, -5.392760144161002, -5.322981746754522, -5.240720273839543, -5.20163596245402, -5.2017755293290975, -5.187324893855475, -5.132451246108758, -5.078046848393569, -5.077938335909494, -5.127278312120325, -5.1726632511708885, -5.18982102204609, -5.22145349517632, -5.322454195509636, -5.486916691193983, -5.656545016319797, -5.798436272658364, -5.9454983761461335, -6.144243027356424, -6.382765004345856, -6.59927278498435, -6.760114298072949, -6.900918341527358, -7.0746238355404785, -7.277738513563236, -7.4562962256732135, -7.582793294230214, -7.697494826843467, -7.85663951940478, -8.058884002859486, -8.251364285733871, -8.406510320228335, -8.563465671322774, -8.776687841727835, -9.042859203627813, -9.307450555348623, -9.541666435328807, -9.783521761482916, -10.086016800352809, -10.443281103833215, -10.796242983869888, -11.110090685662726, -11.417364411450762, -11.767521076539197, -12.152707612192899, -12.51235905016074, -12.810478736519144, -13.07984220977778, -13.372345136562217, -13.683622169650334, -13.955566983906465, -14.152508724549989, -14.305554063874297, -14.4639127710725, -14.620931253664821, -14.717606328857073, -14.719140369012166, -14.659537006971732, -14.592850023087522, -14.518705333213802, -14.385320868506824, -14.165253560920974, -13.898624132461919, -13.643231423897305, -13.3992742420387, -13.111798352337246, -12.747501552066751, -12.340939256297133, -11.947036537518215, -11.565829148463308, -11.14358251098929, -10.648985892151359, -10.12009912004578, -9.617167575808253, -9.145682437294909, -8.655224724092704, -8.114569484086132, -7.558529251632308, -7.041468176321018, -6.562000883598785, -6.063355934142351, -5.509142680987225, -4.930583394921086, -4.380508131202987, -3.858361928580507, -3.310367590849637, -2.704578546110497, -2.0774636689629915, -1.4874144574769161, -0.9385427308861836, -0.3792030670238091, 0.22325852938502067, 0.8346918913539412, 1.3995854507265904, 1.9172487457690295, 2.443492899885314, 3.0150007620595716, 3.5995035746800568, 4.140234114143823, 4.633594554821684, 5.133148615570462, 5.675288960073885, 6.229695881944281, 6.743277090752599, 7.216839293916564, 7.708332638121647, 8.257950584611535, 8.837669462154736, 9.39394163331599, 9.923232191842544, 10.475178145316022, 11.079202198194253, 11.696109106353106, 12.262555432305817, 12.768738837778074, 13.263428999449388, 13.779924200647656, 14.284717827460554, 14.71961813389862, 15.079005496078025, 15.415343364973523, 15.765150664923567, 16.09679460593179, 16.35199005274262, 16.52377471268119, 16.663283632380626, 16.80669990608294, 16.923833048433153, 16.95963377368389, 16.91133616992738, 16.834778948275925, 16.771189136103203, 16.694900678139675, 16.55380150844212, 16.34601006750745, 16.126508544632088, 15.934908815379458, 15.744048233336798, 15.50099018133551, 15.204865614268783, 14.914603418816114, 14.675758129073074, 14.46662348353857, 14.237334761430247, 13.987218897178536, 13.773118288565456, 13.636758225529775, 13.550463200379454, 13.456393389540608]","[-0.001722230347428472, -0.019088457385047098, -0.09637138020343125, -0.3032142126583748, -0.6855483766424681, -1.2207462615080324, -1.839681329926687, -2.492448578000988, -3.1735516910318964, -3.8772239458679785, -4.549233844432564, -5.105877739830937, -5.4972721778379565, -5.7304175817710075, -5.822103072256255, -5.747569747839464, -5.456081706037537, -4.93174139685442, -4.21531220631357, -3.356146297693101, -2.3596202304498775, -1.2015973347565136, 0.11120085648087752, 1.5187924843993414, 2.9551802037710786, 4.401406266588879, 5.8726172659040685, 7.358252812926821, 8.798831461615123, 10.132239013115282, 11.346009849811594, 12.463527003957893, 13.483538761995533, 14.356766338088391, 15.032617891402083, 15.512325973147881, 15.835576123982037, 16.019367319124854, 16.03326523357009, 15.84486741574267, 15.472359636684814, 14.971265720633255, 14.373525802315896, 13.662457942831026, 12.817627791771429, 11.867254126620509, 10.875271010245115, 9.88009969373553, 8.868292109335812, 7.8185109522175935, 6.754645906630685, 5.734222785521524, 4.787791691282337, 3.892670007993729, 3.0172533747841044, 2.17475264893028, 1.412329928528834, 0.7509487792403888, 0.15912005963673437, -0.40265358877832114, -0.9278940561798663, -1.3754251907480466, -1.7301160392335078, -2.0291776739622946, -2.3176939653722, -2.5942928143122117, -2.8211085093207657, -2.9836151381141462, -3.1175756002021444, -3.2654154519796066, -3.421881581517482, -3.543991407719659, -3.611710282887543, -3.6564674614619435, -3.71872237883872, -3.7934374184897024, -3.83920842707721, -3.8386706069113643, -3.8267856859711173, -3.847454965367433, -3.8977757658212795, -3.936304353970627, -3.9432657836805447, -3.9496387220387987, -3.9951623481065326, -4.073544955648686, -4.140921397396596, -4.176014798145843, -4.2091116230203625, -4.279644458971234, -4.380679532145223, -4.466733004293928, -4.513911339417973, -4.5496493960545195, -4.611074963755527, -4.68946398045955, -4.737613968021833, -4.730430152654662, -4.696356300575644, -4.677090816812779, -4.671391664114708, -4.640334319678004, -4.566006424029183, -4.481956524654379, -4.432637911457277, -4.417444900214832, -4.396536383208513, -4.350262586372992, -4.3102574261229165, -4.3191735396594595, -4.374847633136596, -4.436318197635046, -4.483228163922831, -4.546620053941297, -4.668278969709718, -4.844014010701358, -5.028458647857406, -5.194433168104297, -5.365380661945892, -5.5764868272672174, -5.818809366897767, -6.044376530106092, -6.225747227055763, -6.388712551151912, -6.573375772448344, -6.777138894263771, -6.958151034943512, -7.094295560706087, -7.216301544149246, -7.369016806645959, -7.554090637479021, -7.732863152315986, -7.884843061940046, -8.04074917723301, -8.244068278359919, -8.494070713924884, -8.749060688805912, -8.985216103223138, -9.229926171861734, -9.523486025023885, -9.861819605266646, -10.199286123870479, -10.507836839222364, -10.811430612649929, -11.148372647199722, -11.513587529549113, -11.860543891405541, -12.160151823632987, -12.435806922581833, -12.726292590297817, -13.027542886653464, -13.293411943019237, -13.493992629953937, -13.651070665464431, -13.801975938455143, -13.94221028346692, -14.026583004719214, -14.027590107016294, -13.970952327974373, -13.899253392097307, -13.813897930950588, -13.675618729397684, -13.462300869155115, -13.20376664457217, -12.944797612065486, -12.686749787320878, -12.38791482808847, -12.022171100387823, -11.615829040084463, -11.212350743222487, -10.813929193378044, -10.380721818789425, -9.888811592194543, -9.367304398125725, -8.863151828895298, -8.381712192799569, -7.8846063252256045, -7.347078738526761, -6.795241825909898, -6.271529316433316, -5.776304412851459, -5.2666097895744315, -4.713919882791743, -4.141665002008722, -3.5910478028326906, -3.0627628260181154, -2.515412944374475, -1.9228692104197762, -1.3117896760722942, -0.7274357442192922, -0.17462748846082832, 0.3850793304718536, 0.9766282933414914, 1.57366121792802, 2.1323388647233514, 2.6504034680128825, 3.1699887688337185, 3.720056631040279, 4.277062830527939, 4.797912098123561, 5.279786247678203, 5.764406949076147, 6.281328204337115, 6.808652295780121, 7.305595228357561, 7.77195136734008, 8.252172451106162, 8.778273902848014, 9.32971808338334, 9.864897193107026, 10.379713290887594, 10.911670429210062, 11.483895365880016, 12.066463748866227, 12.609251429086726, 13.102233559380693, 13.58107691531768, 14.070867450889637, 14.545424449614075, 14.958375835751212, 15.30303091015594, 15.618297252538468, 15.932543645216356, 16.222495758207515, 16.44378416147447, 16.590799412595516, 16.70299192272796, 16.80924766593307, 16.88735537426328, 16.894754409477173, 16.8282310022405, 16.730327089564526, 16.63370854781533, 16.51982984148708, 16.348773632231314, 16.1187618224576, 15.872970409505797, 15.644437144623225, 15.414979013308766, 15.145172323376755, 14.834567331177823, 14.529240968353406, 14.266166011962923, 14.030572732153814, 13.784626202130312, 13.527167938475031, 13.301674190490303, 13.14128178773899, 13.02622099500877, 12.912670704790798]"
Left,"[0.0007818158818566649, -0.0015903309236580104, -0.04035451208710483, -0.19453739363911657, -0.545719586769656, -1.1058474607408617, -1.8122496558202825, -2.603393770625666, -3.476803567159882, -4.454129838388717, -5.506195432489395, -6.545304258114179, -7.49831400565683, -8.36248014194237, -9.168583206808762, -9.902973921694723, -10.496785321657995, -10.897531231148605, -11.124715098620982, -11.232635445524124, -11.231238847229406, -11.073435428869402, -10.725778711559997, -10.225068410661265, -9.642067378245997, -9.001556326884383, -8.268436560861119, -7.417993359147204, -6.492512508152231, -5.5652855565106165, -4.661068375754894, -3.7421208682794713, -2.778299538560077, -1.8042656415541387, -0.8849544734307528, -0.03773625376425116, 0.7808359491841657, 1.6055864441505037, 2.4060926844817914, 3.1212157433260472, 3.7375765677934396, 4.30371729043236, 4.860181693248705, 5.381525591798891, 5.81031457262543, 6.1361862253861545, 6.410815948667732, 6.67786092406277, 6.913786547406744, 7.06136755047919, 7.110014125547423, 7.112489265253316, 7.115683741018074, 7.101023852288563, 7.0164404622391885, 6.855110097476427, 6.67188037287724, 6.514792485629187, 6.3659557326118374, 6.1730628056438945, 5.927204933721441, 5.679080314327621, 5.471574848163073, 5.281925150508869, 5.054027339201639, 4.777328561747709, 4.504110133610993, 4.2813928774075976, 4.090759880625228, 3.878811475123257, 3.6358431626749734, 3.4135219457639323, 3.2565431065295343, 3.1422538910828735, 3.012259746828022, 2.8529751927653706, 2.714358071380957, 2.641375127029278, 2.6124442816762894, 2.5695256881681416, 2.4980790158142554, 2.4466586163925967, 2.4596014598964757, 2.515622829122549, 2.5567474133877113, 2.566989877514061, 2.59212020238283, 2.6738507787013077, 2.7894227550395954, 2.8805190884377225, 2.93227128568833, 2.993533252360976, 3.1101454110057603, 3.2624735610070275, 3.3929780094058515, 3.485425846902217, 3.586318269948606, 3.738891438949395, 3.9205590535293595, 4.070762189827292, 4.171322480828167, 4.268820139493073, 4.408774743750655, 4.5725984274367875, 4.704364633481418, 4.79012255584621, 4.879876775252342, 5.02159201341874, 5.1975987360810905, 5.350408522024736, 5.4614161563404195, 5.5738395817979836, 5.728899493526114, 5.903632896786803, 6.037113718157343, 6.109809462228441, 6.16683114598527, 6.252983747463077, 6.3489737137642805, 6.396815013156811, 6.379283136971026, 6.343548023612129, 6.335869097373688, 6.3367626907675, 6.286022917817718, 6.1629780129296705, 6.011671889851641, 5.877308026335868, 5.742173311313763, 5.549771866983065, 5.284011839694358, 4.994212508869623, 4.731134268135065, 4.481501088792811, 4.1907031574342, 3.841679305429807, 3.4811766812645146, 3.1575759966890473, 2.8561831470000243, 2.5221089925332763, 2.1398202535226005, 1.7595782424273239, 1.4341070247308494, 1.1524894942391484, 0.8622216894204939, 0.5484885198623033, 0.2607883449702513, 0.049455156600060945, -0.10123476949456744, -0.25118632366684324, -0.42400628228460846, -0.578366110814386, -0.6695424638919576, -0.7157161514996915, -0.7773429928779478, -0.8780630981409558, -0.9762095632613637, -1.0260781883362142, -1.0444566503119859, -1.0906458969739106, -1.1879017326937173, -1.2945141982081623, -1.3639663288704469, -1.411128911598098, -1.4925119011641073, -1.627257979416754, -1.7679488479716383, -1.8619692390293494, -1.9195882449503188, -1.995412165903872, -2.1093911275174833, -2.2168904101599765, -2.2696000154282956, -2.2834293081978103, -2.319240029024513, -2.4028008887362375, -2.493863288729699, -2.5461275812722306, -2.574981877447499, -2.6390964629790687, -2.7608879485887883, -2.895330125456894, -2.9901693983956648, -3.0549900905352843, -3.1445682644734916, -3.2804439600149635, -3.4191310188689386, -3.5106399897122174, -3.5667054443601955, -3.644269721386081, -3.7668343358836864, -3.892365195310049, -3.9723291651280306, -4.020641113369493, -4.097039791617135, -4.227511560364292, -4.371477171354854, -4.4812851057195076, -4.572180495046268, -4.705968159954864, -4.91086720522253, -5.147487921602078, -5.366707923072681, -5.579086623401963, -5.839728158764046, -6.169339986972773, -6.52050365991272, -6.836086727053043, -7.120031214477422, -7.424025004102077, -7.76970469938351, -8.11395204317887, -8.404862893376048, -8.650840762496955, -8.906536345397399, -9.194462340456084, -9.47047856764948, -9.681020842699581, -9.833505981157941, -9.982965101975424, -10.153467689142417, -10.30280427103935, -10.379548228598651, -10.394047377407333, -10.405070058732235, -10.440430695558462, -10.460684806777863, -10.415307837904038, -10.313628122483351, -10.212532302384716, -10.137931362551171, -10.048190765135587, -9.890014796916148, -9.67035758336533, -9.44604142731987, -9.24620139826402, -9.03458964384663, -8.763524368170692, -8.444736767633003, -8.138435800943626, -7.875141582198921, -7.618064691059772, -7.318014827762454, -6.985377745122605, -6.679952143438641, -6.432703921062057, -6.207461748186688, -5.955658715691243, -5.688575081332601, -5.466933114801577]","[0.0007541658402441321, -1.9119103758931085e-05, -0.02650165738170129, -0.13856876033008328, -0.39979069640174364, -0.8215805921153477, -1.3577084145477962, -1.9616715997340846, -2.6321369691539864, -3.3872109436943525, -4.206232514211436, -5.022205332751039, -5.777639913832871, -6.469136470912304, -7.120613166340831, -7.7230132031035765, -8.224364129819492, -8.58404238350414, -8.81653036890134, -8.96407343301604, -9.03544381871825, -8.994489610572089, -8.813544449808433, -8.517914633948976, -8.159593638733554, -7.756075614056158, -7.278535830769329, -6.705277594660856, -6.066399078071299, -5.417443627822422, -4.777832508792471, -4.118423251615468, -3.414584821785411, -2.69127758831155, -1.9978760722474362, -1.3479489781898337, -0.7074942270792235, -0.047901403537707665, 0.6089977341316626, 1.2158704145253978, 1.7604425531426386, 2.27801906129298, 2.7986070371393907, 3.3013934228683866, 3.7396321731748685, 4.101773824055272, 4.4246435103304975, 4.740595098017366, 5.031217785601257, 5.251616993972675, 5.391982942636787, 5.4917149102439, 5.586943391313071, 5.663630722554444, 5.680688589404781, 5.630725445683311, 5.554329081815013, 5.488383726740722, 5.419673605034404, 5.307750535867854, 5.1450521508977545, 4.970881694542186, 4.820078991445371, 4.677231046516681, 4.499982692372214, 4.279801828256495, 4.05681640466355, 3.8684002314030295, 3.7019566200451663, 3.516841425635903, 3.3048931478260783, 3.105531101188717, 2.9542754131116453, 2.835719305798193, 2.7064624407603333, 2.5567340168863666, 2.425806674332307, 2.349868375711594, 2.313654422950094, 2.2723014702187356, 2.213148742017438, 2.172433643631848, 2.184441822475492, 2.233367919347984, 2.2742597917185776, 2.2938454293434916, 2.3272572378918994, 2.4079650091598523, 2.520032557149534, 2.6187866604914234, 2.691624822349695, 2.775140186048702, 2.904755754002508, 3.065757283293351, 3.2129960900656442, 3.331861543649211, 3.456444016362184, 3.620089292476223, 3.8066362126273816, 3.9701429029100836, 4.096210843161316, 4.220394291089178, 4.378481204373202, 4.557143851718138, 4.71312951182972, 4.834335547411683, 4.958178605072135, 5.121719027226391, 5.3118621741450625, 5.483894128904467, 5.622246884452579, 5.759618532386412, 5.928495446672969, 6.11214483270669, 6.26328257840396, 6.3651539849770415, 6.450892301728345, 6.554536733668101, 6.661203848369041, 6.7253078131279835, 6.731712618807251, 6.7153810512290875, 6.712268647859673, 6.708772121815855, 6.6592594177382125, 6.547216553065027, 6.405774109774484, 6.269924466480006, 6.126679449635958, 5.932330247906066, 5.673328100695926, 5.386948239746744, 5.113035338440113, 4.842771667785655, 4.534772803313899, 4.1759706201678455, 3.803287915863393, 3.456387086222321, 3.1266347350897377, 2.773127515500505, 2.383917702521444, 1.9978555270139964, 1.656862408101972, 1.354286156248179, 1.050443054919981, 0.7335201795249304, 0.4415017105950483, 0.21449993440455728, 0.04254402029778248, -0.11944861108531768, -0.290354542896921, -0.4395186947035654, -0.5328877830793317, -0.58461065190113, -0.6425948040509866, -0.7277515066671185, -0.8105604186202982, -0.8570226779215773, -0.8804475701199408, -0.9273276522671949, -1.0167916328227875, -1.1170387476568067, -1.1910351089727556, -1.2485898804352473, -1.3327738156303894, -1.459260177248325, -1.5924128126534924, -1.6914223573367053, -1.7634499293744739, -1.8508857493097821, -1.9707257759482673, -2.0899854086264895, -2.1711481520715097, -2.2249475705521036, -2.297367153762025, -2.408744020625818, -2.528795687114325, -2.621601660759552, -2.6982761569397553, -2.804134066458573, -2.9575309372503398, -3.1244277171299473, -3.263710636909309, -3.38108600884334, -3.5176203995288233, -3.6893899096703535, -3.861806658687783, -3.994098888035296, -4.092932538282184, -4.201331987924277, -4.338359065961413, -4.472976124456181, -4.568291925947051, -4.6351986408444645, -4.7209103567129205, -4.847741303234216, -4.986275685287183, -5.099815519342883, -5.198877145618098, -5.330494987683778, -5.517206046022693, -5.7296179224940715, -5.929698964320778, -6.124695873748351, -6.356886440074959, -6.643011909238339, -6.946968445467064, -7.223730998483006, -7.474540103647087, -7.738032988725536, -8.03048789852437, -8.317947336308862, -8.55858505651122, -8.75675749338734, -8.95367572588475, -9.167312783656598, -9.36451511854284, -9.503897016244082, -9.590565683865862, -9.667255380611095, -9.754086634395208, -9.819889942133159, -9.824668079063485, -9.774778878998404, -9.714571069765952, -9.666060712819672, -9.599838594762332, -9.477115237137696, -9.304782555440397, -9.127301369608176, -8.966454450517631, -8.791828964509477, -8.5626681599515, -8.28380403501069, -7.9990333707009995, -7.731598285557993, -7.454061401555009, -7.129113935721762, -6.764955254748202, -6.4083796224986145, -6.084855897714078, -5.768210676502349, -5.421675307670739, -5.053802106602234, -4.712082731892224, -4.422948318191629, -4.160749243914324, -3.8883837271805533, -3.6134119995367655, -3.381952750896744]"
Neutral,"[0.0038649120390014807, 0.02361088727516783, 0.059105110154461724, 0.062352288242576104, -0.046439514367199924, -0.3047941446846183, -0.6716628965223581, -1.0833947930271344, -1.5288526921322947, -2.0438976356436838, -2.635979422163399, -3.244848231489957, -3.7953789569313514, -4.2713019466645825, -4.709077077260446, -5.121265640931412, -5.455976323291722, -5.649025847776485, -5.697241174630136, -5.65176115127997, -5.5407756075590555, -5.328733456424004, -4.968857129298726, -4.476578529495953, -3.9220376364385174, -3.3514507284960473, -2.744623524452777, -2.0656411760199944, -1.3356470057880188, -0.6263806311259259, 0.017398897837210825, 0.620486435596149, 1.2266956745775133, 1.8249292203086043, 2.353385517099923, 2.775610512549747, 3.1235577395873406, 3.4483607009235584, 3.7470383879524434, 3.967097871661281, 4.0830177045343135, 4.138701508001077, 4.1963681744255155, 4.261176761554452, 4.284598062571604, 4.241132091245618, 4.172059219665243, 4.135549014371918, 4.132159926104123, 4.1089325851921785, 4.036491201336048, 3.9531437597547665, 3.915305737009021, 3.9221818778369197, 3.918128179807809, 3.8690625031640593, 3.807515991672517, 3.78455797921697, 3.7954086783101957, 3.781645840668716, 3.7073765451259533, 3.605109740365151, 3.528226959112544, 3.4754120114916986, 3.391299775328662, 3.2422006779806907, 3.0621515900847953, 2.905681101430446, 2.7726982666922595, 2.609490039230195, 2.384474743854753, 2.133911397016618, 1.9139860579368815, 1.725255492704946, 1.5139166414455758, 1.248388502986245, 0.9661694169230941, 0.7266427879744697, 0.5345063307531746, 0.3387070672961272, 0.10771655748567355, -0.12281898604715025, -0.29570919966613474, -0.4082200756970451, -0.5139043236874841, -0.6479599733386294, -0.7788393834373437, -0.8526639971977374, -0.8688472023414988, -0.8820811944016214, -0.9276517253098291, -0.9730187872514762, -0.9627420757826712, -0.8950763600097389, -0.8246989279562627, -0.7882063734325016, -0.7558726190133598, -0.6766343836090982, -0.5536526714754473, -0.44539956646553946, -0.3901014112075245, -0.3567315902230064, -0.2896838464125935, -0.18585261280203724, -0.09836108065353955, -0.06230629248793207, -0.045120380464254595, 0.009980935681880965, 0.10722788491804636, 0.1935856519677941, 0.2325005158252793, 0.2547193499718219, 0.315865079858213, 0.41938519164864374, 0.5117961807125084, 0.5569028353413614, 0.5863817721518672, 0.656755779057903, 0.772017310029014, 0.8784106988221083, 0.9382161637024637, 0.9804800706958758, 1.0586131483797772, 1.1736911048988077, 1.2695165953978176, 1.3065288922448417, 1.3133316837511302, 1.3450952444463837, 1.4060294231692296, 1.4425234175005244, 1.4161871224819151, 1.356048818061936, 1.3178140282573167, 1.3062242525290912, 1.2674018178431652, 1.161908623093268, 1.0181425719765684, 0.892420053801743, 0.791079458569584, 0.662355159098297, 0.46906506724553765, 0.24169555683738508, 0.038632167875675805, -0.1314138167786041, -0.3176860472399312, -0.5552745703421351, -0.8128344354627188, -1.033043081951746, -1.210145834390005, -1.3974893267572952, -1.634149524982604, -1.8908244489216486, -2.108887151640829, -2.278556013366142, -2.448823878163239, -2.656169912905625, -2.8709043565972934, -3.0356707216656105, -3.143446241826041, -3.247803025762096, -3.390954601957219, -3.5480503868634514, -3.664129551652877, -3.732014956246985, -3.8029314375544345, -3.9150439281306717, -4.038602881685165, -4.113707082660312, -4.128816579934664, -4.131964246336338, -4.1599613437492735, -4.184381205704085, -4.149544884062834, -4.050023027778934, -3.9406447565907, -3.864612420125013, -3.797588429674306, -3.684233737145405, -3.5168475204154674, -3.3479179314886096, -3.2194349626443, -3.106460365145722, -2.9529557110886344, -2.7507656902398594, -2.5532645607117956, -2.4048299782775757, -2.28316745907523, -2.133874134025973, -1.9486694813722352, -1.7785774784138084, -1.6638505058726878, -1.5775996676784416, -1.4614007328364096, -1.3041552117679203, -1.1558056803619365, -1.0574234402483853, -0.9846060678992217, -0.882394606505386, -0.7429908542685553, -0.6187594460152468, -0.5521281554606503, -0.5183918918442032, -0.46037378064784207, -0.36748817635952946, -0.29041771256197535, -0.2710936955145371, -0.2842303290281052, -0.2711147960362723, -0.2196009974959452, -0.1807432812843217, -0.19926382133644438, -0.25352253118444423, -0.2874008131100254, -0.2888623998080675, -0.3058411253553004, -0.3774085462268886, -0.4754535701599707, -0.538019113677592, -0.5488975196476531, -0.5542325852577505, -0.5939091664154148, -0.6430702399957227, -0.6445495853988632, -0.5869186716413424, -0.520274545874372, -0.4875770724429458, -0.46561159271345787, -0.39705542049216547, -0.2697042299255372, -0.13386645127843622, -0.03381226895112377, 0.05248815395771089, 0.18208869580485043, 0.36700493126090805, 0.5552348621220631, 0.6989323245742298, 0.8158232545763724, 0.9593923993744085, 1.1401354826315924, 1.3074875327693718, 1.4175079928963896, 1.492718648412449, 1.5910785942313623, 1.7264415824387243, 1.8496153012736158, 1.9156684128265624, 1.9442219004326944, 1.98943483171945, 2.0616322485053615, 2.1090633505945107]","[0.0031315226927354453, 0.019496084915920208, 0.050873228181486395, 0.06231458783801888, -0.007043845829525053, -0.18725501467941544, -0.44821997458966717, -0.7414390122228129, -1.0581579370895406, -1.4263380138906205, -1.8527890968095093, -2.2918177974902108, -2.6850876658588447, -3.0191951336455105, -3.3225826393282887, -3.606881380030238, -3.834209360217649, -3.9559082075492285, -3.969405102768107, -3.9145739838809277, -3.81464312588389, -3.6433906221575967, -3.3641547917551406, -2.986977808008362, -2.5648564268241785, -2.1340488530148036, -1.6801682606431427, -1.1758164087582372, -0.6368785345130163, -0.11890042092227304, 0.3422805011214223, 0.7646258648751427, 1.1823268611328785, 1.5885379331673448, 1.9372451065164569, 2.201338254725556, 2.406604172556399, 2.594642641423434, 2.765872685779641, 2.8816550360947986, 2.9227846372839394, 2.923347454482382, 2.932467478642593, 2.9556994523838966, 2.9561005574737464, 2.9129623074029496, 2.8570166431866255, 2.8336244263496155, 2.844973207692874, 2.851258215987855, 2.8291362502620814, 2.806762891128983, 2.826891343821444, 2.8884856232737093, 2.9470869500810295, 2.973259588283099, 2.988603979218624, 3.03017533476509, 3.0931344067789723, 3.1314178773134245, 3.1161014810058987, 3.0715546138878835, 3.0395325182362285, 3.0202266204619264, 2.971134180824947, 2.8648922893307827, 2.726059520012768, 2.596179896843978, 2.475714943835328, 2.323424102386525, 2.1142422047439595, 1.8757793639017564, 1.6528701780283654, 1.4488940360164406, 1.224813205299938, 0.9573041443372858, 0.6759546749804031, 0.42818087584009845, 0.2198184717570939, 0.012724738812039504, -0.21779239907948522, -0.4450101891937379, -0.6244780907880454, -0.7526879868122478, -0.8697278146103145, -1.0023419998273084, -1.1259379941267866, -1.1979307953563705, -1.2164544802848525, -1.2234058713789864, -1.24745365104188, -1.2654409218279454, -1.23549758530676, -1.1563020089011786, -1.0707274538645493, -1.0090229980337426, -0.950309380105125, -0.8556180053666935, -0.726371725578133, -0.6070304017844705, -0.5277970598302772, -0.4658722323750908, -0.37855724380528954, -0.26287227727027584, -0.15986085660165372, -0.09798068435736695, -0.05375513265528298, 0.016167273489372747, 0.11584200744130158, 0.20520196922905143, 0.256227572292687, 0.29273232359651047, 0.3585126038576618, 0.4575378795882443, 0.5488720480508391, 0.603374121774209, 0.6438409408428925, 0.7131997890226103, 0.8146720644997458, 0.9063336233441532, 0.9574354658841457, 0.9888502668534329, 1.0420390412286906, 1.1195830969402323, 1.1793587761103481, 1.1904327014949558, 1.1738103583209067, 1.1718873910601815, 1.1885985375104156, 1.1826258729895471, 1.1229733134455273, 1.0303432126822827, 0.9473020479522347, 0.8785051564257174, 0.7835803449031573, 0.6327246386492789, 0.4484642611678282, 0.2757896412012997, 0.12174000918275851, -0.05236713899557799, -0.2755820630341077, -0.5252592705041934, -0.7561620713945558, -0.960282242825997, -1.1746749281887787, -1.4266014245440601, -1.6920740457976535, -1.9255557173360103, -2.120148301754398, -2.3153124775089964, -2.5412172446676777, -2.7759199562287904, -2.97392904036451, -3.1265325716576626, -3.2710116623152317, -3.4366030827427494, -3.602208080248147, -3.724539535486656, -3.7980194737806414, -3.8637758061777276, -3.9549275792669505, -4.053059686324559, -4.11564047359343, -4.136212706454444, -4.15399950667279, -4.199568255905888, -4.25151098160859, -4.264071854210215, -4.227725553289474, -4.179282185357806, -4.148078117458681, -4.113240224482979, -4.0314461615071195, -3.896938805789432, -3.7510871731019506, -3.6279674567203983, -3.51022190858248, -3.3556440511874825, -3.157811047283758, -2.9572707891097707, -2.787861117561988, -2.632127517715162, -2.447345274915733, -2.2262985229804144, -2.0091289944430173, -1.8299075842301136, -1.671634210449156, -1.491758194466911, -1.2825586909293634, -1.0827229804770013, -0.924165013695756, -0.7876400559264312, -0.6287211510682482, -0.4385855932728191, -0.2560162862246216, -0.1142102756168697, 0.0041117729901998246, 0.1414417799956027, 0.3053063097838731, 0.4563304673899893, 0.5611746166298417, 0.6375239780089714, 0.728867573860839, 0.8436035189725999, 0.9423573774014358, 0.9912318847231063, 1.007950368380989, 1.0373748725229461, 1.0899258164512275, 1.1273857631525175, 1.115510594599101, 1.0708591064965276, 1.0374286116151126, 1.026117942075544, 1.0011071170545307, 0.9320716039669321, 0.8400428691963953, 0.7731335756374165, 0.7451365616504972, 0.721273391463626, 0.6703488630942047, 0.6110388441760506, 0.5885112924975147, 0.6139873803867886, 0.6506270705958741, 0.6652849790216351, 0.6748696438653496, 0.7231712861276947, 0.8199255416348024, 0.9260428604184199, 1.0056817646404852, 1.0737648775809703, 1.1734864135307816, 1.3147776784344387, 1.4583347235316069, 1.5670860277550673, 1.653994152514315, 1.7602991545095392, 1.8949349288018311, 2.0193279597740457, 2.098732529910876, 2.149170667186354, 2.214912971655849, 2.307205149632182, 2.3882704062016273, 2.422442924089637, 2.4238170635078404, 2.4346716148347696, 2.4647366129347574, 2.4752508067454073]"
