/,U,s,e,r,s,/,g,a,b,r,i,e,l,/,D,o,c,u,m,e,n,t,s,/,G,i,t,H,u,b,/,L,u,c,i,E,n,t,r,y,-,H,o,m,e,/,D,e,v,i,c,e,s,/,d,e,t,e,c,t,o,r,/,c,n,n, ,t,r,a,i,n,i,n,g,/,c,n,n,_,e,o,g,_,d,a,t,a,/,g,a,b,t,e,s,t,3,8,/,g,a,b,t,e,s,t,3,8,_,e,o,g,_,r,a,w,_,s,l,o,w,_,d,a,t,a,.,c,s,v
Left,"[-36112.75239142805, -35894.264089377415, -36154.93013321521, -36576.21581270883, -36553.05940545314, -36118.22856881959, -35891.55952829833, -36147.5317058005, -36570.67258008392, -36545.30335012714, -36121.134295598786, -35889.45846431953, -36142.01082492004, -36565.598734092564, -36545.124536171505, -36124.44235377817, -35899.159121413126, -36145.56475228843, -36566.582210848595, -36548.76787051772, -36125.023499134004, -35888.98907768596, -36137.80869696244, -36561.79893753516, -36547.493821083764, -36128.15274335775, -35889.61492653071, -36133.20423760465, -36566.55985910414, -36561.28484741269, -36136.26642659502, -35890.44194107556, -36127.281025323995, -36554.691082798374, -36548.253780395244, -36132.28781608198, -35886.083350906774, -36123.90591191124, -36552.79118451967, -36549.68429204039, -36134.03125214949, -35892.87828122119, -36122.14012409927, -36546.309178627635, -36544.54339081566, -36131.10317362585, -35879.802510714835, -36114.60758621783, -36543.448155337355, -36548.074966439606, -36137.85340045135, -35880.04837990384, -36110.2713477935, -36547.27030363921, -36559.384949133986, -36137.92045568472, -35876.13682462416, -36105.2198535466, -36535.692100011365, -36544.85631523804, -36136.221723106115, -35872.806414700324, -36100.704801166634, -36535.13330639998, -36550.310140885136, -36145.29653135497, -35888.899670708146, -36104.23637679057, -36534.55216104414, -36550.24308565177, -36141.29556909747, -35870.68299897707, -36093.97692608558, -36527.712527240816, -36549.97486471831, -36147.688168011686, -35874.19222285655, -36089.84185336135, -36529.76888773071, -36555.07106245412, -36145.25182786606, -35868.403121042626, -36080.5658794124, -36513.78739044516, -36544.05165243765, -36144.961255188144, -35866.05618787482, -36075.00029504303, -36508.82530317608, -36541.503553569746, -36147.77757498951, -35875.48862403496, -36075.78260609897, -36508.44532352035, -36542.889361725975, -36145.25182786606, -35858.14367033764, -36062.70683559261, -36498.65525944892, -36540.40831809143, -36144.53657204349, -35855.0144261139, -36057.99061751254, -36503.79616067364, -36547.09148968357, -36148.3810720898, -35856.53434473686, -36056.537754122946, -36492.64264019044, -36536.54146630067, -36144.49186855458, -35850.789946411845, -36048.84875403032, -36487.568794199084, -36537.502591312244, -36148.55988604545, -35858.21072557101, -36043.730204550055, -36481.019733073685, -36536.69792851185, -36148.55988604545, -35847.03485334335, -36039.37161438127, -36479.209241772805, -36537.99432969026, -36151.91264771374, -35845.17965855356, -36034.99067246803, -36483.45607321931, -36541.3247396141, -36152.42673783621, -35847.28072253236, -36034.18600966764, -36473.59895391452, -36537.435536078876, -36154.43839483719, -35844.75497540891, -36028.352204364804, -36466.13347126645, -36533.121649399, -36159.44518559518, -35851.43814700105, -36024.08302117384, -36463.49596542072, -36535.37917558899, -36154.4830983261, -35838.13885905014, -36017.62336702626, -36455.359930438986, -36530.573550531095, -36154.192525648185, -35835.680167160055, -36012.348355334805, -36462.78070959815, -36538.75428900174, -36159.55694431745, -35834.71904214848, -36006.62630875425, -36445.61456985647, -36530.32768134209, -36159.579296061915, -35832.0591845583, -36000.34546856231, -36442.5523808661, -36530.84177146456, -36163.58025831941, -35839.50231546191, -35997.05976212737, -36436.137430207425, -36525.99144291776, -36161.09921468487, -35830.09223104623, -35992.9470411476, -36432.94113075032, -36525.94673942885, -36159.512240828546, -35824.61605365468, -35981.994686364495, -36432.60585458349, -36529.545370286156, -36164.09434844188, -35826.381841466646, -35980.474767741536, -36418.30073813209, -36520.35880331502, -36161.188621662695, -35824.88427458814, -35981.48059624202, -36420.178284666334, -36523.6221580055, -36169.637581066796, -35832.17094328057, -35974.61861069425, -36413.38335435192, -36522.72808822728, -36165.12252868683, -35823.163190265084, -35970.10355831427, -36408.95770894977, -36521.67755623788, -36165.59191532039, -35818.31286171828, -35965.16382278965, -36415.998508453195, -36524.627986505984, -36167.335351387905, -35817.82112334027, -35961.87811635472, -36403.10155190248, -36522.92925392738, -36170.59870607838, -35815.18361749454, -35954.21146800655, -36394.63024075392, -36516.4695997798, -36174.197336935686, -35823.56552166528, -35953.16093601715, -36387.34357206149, -36512.55804450012, -36166.284819398505, -35811.003841281396, -35947.058909780855, -36384.72841796022, -36511.73102995528, -36166.575392076425, -35808.835722069234, -35943.52733415691, -36392.14919711938, -36515.977861401785, -36170.86692701184, -35809.99801278091, -35937.984101532, -36376.03358936711, -36514.72616371229, -36175.44903462518, -35808.142817991116, -35932.01618576243, -36368.72456893022, -36509.540558998655, -36181.08167422791, -35813.12725700465, -35927.23291244899, -36363.516612472136, -36508.04299212015, -36173.571488090936, -35805.86294005668, -35923.768392058424, -36359.783871148094, -36508.53473049816]","[-39415.82613179996, -39243.203609371616, -39436.166219254286, -39761.786432479195, -39750.54350501818, -39419.737687079636, -39240.09671689233, -39428.90190230631, -39758.29956034417, -39747.81659219463, -39422.106971991896, -39238.08505989135, -39424.0068702706, -39753.15865911945, -39746.74370846077, -39423.89511154832, -39241.594283770835, -39425.28091970455, -39754.00802540875, -39749.60473175105, -39423.89511154832, -39237.10158313532, -39420.47529464666, -39749.53767651769, -39747.77188870572, -39426.152637738305, -39237.72743198007, -39416.56373936698, -39751.83990619658, -39755.52794403171, -39433.014623286086, -39238.263873847, -39410.908748019785, -39742.67569096991, -39747.23544683879, -39428.454867417204, -39233.94998716712, -39408.114779962874, -39741.04401362467, -39748.06246138364, -39428.678384861756, -39234.464077289595, -39404.694963061214, -39734.29378679917, -39741.89337991398, -39424.87858830435, -39226.75272545251, -39399.107026947386, -39731.38806001998, -39744.62029273752, -39430.71239360719, -39226.95389115261, -39395.396637367805, -39731.924501886904, -39750.09647012907, -39429.23717847314, -39222.66235621719, -39390.568660565456, -39723.63200469399, -39739.76996419072, -39426.934948794245, -39219.28724280444, -39386.61240179687, -39723.43083899389, -39744.77675494871, -39434.109858764394, -39228.96554815359, -39389.093445431405, -39722.87204538251, -39744.039147381685, -39430.15359999581, -39216.73914393654, -39380.73389300512, -39716.3229842571, -39743.122725859015, -39435.42861168726, -39220.069553860376, -39377.04585517, -39714.28897551167, -39742.854504925555, -39431.740573852134, -39213.92282413517, -39368.08280564342, -39702.800178861646, -39735.8807606555, -39430.645338373826, -39211.57589096736, -39363.25482884107, -39698.15101601494, -39732.997385620765, -39431.56175989649, -39214.503969491, -39362.91955267424, -39697.391056703455, -39733.24325480977, -39428.96895753968, -39203.149283307706, -39351.54251474649, -39688.115082754506, -39730.24812105276, -39427.11376274988, -39199.59535593932, -39347.04981411098, -39688.5174141547, -39732.41624026492, -39429.95243429571, -39201.09292281782, -39346.13339258831, -39682.4153879184, -39725.28603378368, -39425.392678426826, -39195.21441402607, -39339.1372965738, -39677.72152158279, -39725.62130995051, -39426.82319007197, -39196.24259427102, -39333.61641569334, -39671.17246045738, -39724.21315004983, -39427.6055011279, -39191.23580351303, -39330.59893019187, -39669.80900404561, -39725.017812850216, -39430.064193017985, -39189.291201745415, -39326.597967934365, -39669.160803456405, -39724.66018493893, -39429.41599242878, -39190.94523083511, -39326.285043512, -39665.09278596554, -39723.87787388299, -39431.18178024075, -39188.77711162295, -39321.434714965195, -39658.18609692885, -39719.072248825105, -39432.94756805272, -39189.13473953423, -39316.98671781859, -39655.727405038764, -39720.882740125984, -39429.34893719541, -39181.80336735289, -39311.73405787159, -39648.17251541287, -39715.719487156806, -39428.29840520601, -39179.27762022944, -39306.68256362469, -39650.29593113613, -39720.77098140371, -39432.52288490807, -39178.048274284396, -39301.69812461115, -39639.164762397384, -39714.55719644513, -39431.98644304114, -39175.544878905406, -39296.35605768634, -39636.79547748512, -39714.95952784533, -39432.858161074895, -39177.44477718411, -39293.15975822923, -39630.89461694892, -39709.840978365064, -39432.27701571906, -39173.60027713779, -39290.25403145004, -39628.525332036654, -39709.90803359843, -39430.28771046254, -39168.41467242416, -39279.65930457822, -39622.736230222734, -39710.80210337664, -39433.81928608648, -39169.88988755821, -39279.145214455755, -39615.0025266412, -39703.51543468421, -39430.31006220699, -39168.392320679704, -39280.91100226772, -39617.41651504237, -39706.51056844123, -39434.7580593536, -39170.33692244732, -39274.25018242004, -39611.068619617065, -39705.05770505163, -39432.52288490807, -39166.67123635665, -39270.9197724962, -39607.38058178194, -39704.09658004005, -39432.858161074895, -39162.06677699885, -39265.91298173821, -39608.6993347048, -39704.9235945849, -39433.506361664105, -39161.23976245401, -39263.72251078159, -39602.530253235134, -39704.9235945849, -39436.345033209924, -39158.669311841644, -39257.016987445, -39594.93066012033, -39698.2180712483, -39435.36155645389, -39162.35734967677, -39256.30173162243, -39588.09102631701, -39694.06064677962, -39430.66769011828, -39154.40012865068, -39251.00436818652, -39586.28053501613, -39693.14422525695, -39430.31006220699, -39152.18730594961, -39247.07046116239, -39587.97926759473, -39695.96054505832, -39433.79693434202, -39153.10372747228, -39243.31536809389, -39579.060921557066, -39696.04995203614, -39438.08846927744, -39151.58380884931, -39238.263873847, -39572.44480519829, -39690.64082987796, -39438.51315242209, -39152.388471649705, -39233.79352495593, -39567.706235373764, -39688.85269032153, -39434.892169820334, -39149.102765214775, -39231.20072259912, -39564.82286033903, -39689.32207695509]"
Neutral,"[-36175.06905496944, -35801.59375686571, -35920.415630390125, -36366.377635762416, -36511.619271232994, -36177.01365673705, -35798.86684404217, -35913.46423786452, -36348.36212973143, -36502.835035662065, -36173.973819491126, -35798.82214055325, -35908.34568838426, -36342.304806984044, -36500.666916449896, -36185.82024405244, -35804.27596620035, -35904.121208682205, -36338.08032728199, -36500.64456470544, -36177.617153837346, -35795.692896329514, -35898.309755123824, -36329.318443455515, -36493.402599501926, -36172.76682529054, -35791.33430616073, -35894.35349635524, -36334.79462084706, -36495.86129139201, -36176.94660150368, -35794.575309106745, -35891.894804465155, -36324.065783508515, -36496.822416403586, -36177.28187767052, -35788.696800315, -35879.6684002481, -36310.14064671286, -36489.98278260026, -36186.37903766382, -35791.75898930538, -35877.65674324712, -36304.12802745438, -36485.557137198106, -36176.81249103695, -35786.72984680293, -35875.22040310149, -36304.150379198836, -36488.82049188858, -36180.63463933881, -35787.95919274798, -35874.39338855665, -36305.02209723259, -36483.34431449704, -36179.360589904856, -35783.28767815682, -35863.798661684836, -36293.62270756039, -36483.098445308024, -36178.13124395982, -35782.10303570068, -35861.22821107247, -36287.31951562399, -36483.76899764169, -36192.25754645557, -35787.08747471422, -35857.920152893086, -36278.64703877533, -36476.86230860499, -36181.72987481712, -35778.95143973249, -35848.08538533275, -36273.03675091705, -36477.309343494104, -36182.0427992395, -35778.906736243574, -35850.47702198947, -36277.64121027484, -36473.59895391452, -36178.84649978238, -35774.7940152638, -35839.256446272906, -36258.016378643086, -36465.99936079972, -36181.12637771683, -35774.27992514133, -35837.62476892767, -36258.44106178774, -36470.78263411315, -36191.89991854429, -35776.962134475965, -35831.47803920246, -36250.103861105905, -36468.32394222307, -36185.12733997433, -35774.34698037469, -35826.69476588902, -36244.717090692175, -36465.574677655066, -36184.50149112958, -35772.38002686263, -35832.126239791665, -36251.04263437303, -36464.859421832494, -36185.41791265224, -35771.97769546243, -35818.53637916283, -36232.64714868631, -36461.305494464104, -36184.76971206304, -35766.74738725989, -35811.96496629297, -36227.01450908357, -36461.48430841974, -36198.42662792523, -35773.20704140748, -35811.58498663724, -36225.0475555715, -36459.38324444094, -36190.00002026559, -35768.915506472054, -35807.76283833538, -36218.923177590754, -36456.611628128485, -36189.66474409876, -35768.06614018275, -35808.88042555814, -36217.98440432363, -36452.38714842643, -36189.68709584321, -35767.75321576038, -35799.42563765355, -36204.14867450579, -36448.9002762914, -36189.217709209646, -35765.04865468128, -35792.72011431696, -36199.633622125824, -36449.012035013686, -36199.38775293681, -35764.713378514454, -35787.53450960333, -36192.63752611131, -36443.51350587768, -36188.05541849797, -35763.21581163595, -35783.667657812555, -36185.59672660789, -36442.59708435501, -36191.25171795508, -35763.12640465813, -35788.09330321471, -36187.340162675406, -36439.69135757582, -36191.69875284419, -35759.483070311915, -35772.55884081827, -36172.073921212424, -36434.88573251793, -36191.519938888545, -35760.84652672369, -35770.12250067264, -36169.88345025581, -36438.506715119685, -36202.80756983848, -35760.91358195705, -35765.78626224831, -36162.574429818924, -36429.34249989301, -36188.50245338708, -35755.12448014313, -35758.41018657806, -36157.277066383016, -36429.16368593737, -36188.34599117589, -35754.00689292036, -35765.02630293683, -36155.95831346015, -36424.603930068486, -36190.53646213251, -35757.113785399655, -35752.17404987503, -36144.894199954775, -36422.368755622956, -36191.49758714409, -35755.16918363204, -35749.38008181812, -36142.234342364594, -36425.96738648026, -36202.4946454161, -35757.85139296668, -35745.62498874962, -36134.59004576088, -36417.898406731896, -36191.229366210624, -35752.755195230864, -35740.28292182481, -36127.973929402106, -36414.79151425261, -36191.07290399944, -35752.33051208621, -35742.33928231469, -36120.53079849849, -36406.700182759785, -36189.24006095411, -35749.916523685046, -35726.87187515162, -36108.72907742609, -36403.43682806931, -36189.128302231824, -35750.22944810742, -35725.75428792886, -36105.041039590964, -36404.889691458906, -36197.01846802455, -35748.30719808426, -35717.77471515831, -36098.268461021005, -36400.01701116765, -36190.15648247677, -35746.29554108328, -35712.96909010042, -36094.24514701905, -36394.67494424283, -36185.32850567443, -35742.987482903896, -35721.529808226805, -36093.39578072975, -36394.36201982046, -36187.96601152015, -35744.529753271316, -35707.15763654204, -36081.79522535744, -36391.43394129681, -36188.34599117589, -35741.66872998104, -35697.43462770398, -36072.20632698612, -36390.830444196516, -36196.482026157624, -35743.479221281916, -35696.428799203495, -36067.26659146149, -36381.465063269745, -36185.66378184126, -35741.13228811411, -35694.35008696915, -36064.33851293785, -36381.42035978084]","[-39435.76388785409, -39144.766526790445, -39226.9091876637, -39565.627523139425, -39690.90905081142, -39436.6579576323, -39141.74904128898, -39222.10356260581, -39554.5857613785, -39683.063588507604, -39433.23814073064, -39141.838448266804, -39217.6555654592, -39549.266046198136, -39680.64960010643, -39439.18370475575, -39143.53718084541, -39213.6546032017, -39545.57800836301, -39680.403730917424, -39435.22744598716, -39138.28452089841, -39208.84897814381, -39537.68784257029, -39673.05000699163, -39429.728916851156, -39133.74711677398, -39203.41750424117, -39537.509028614644, -39674.391111658944, -39432.858161074895, -39136.63049180871, -39203.3057455189, -39533.66452856833, -39676.04514074864, -39432.74640235262, -39130.6849277836, -39191.884004102234, -39520.36524061742, -39668.82552728958, -39435.65212913181, -39130.95314871707, -39190.25232675699, -39514.9784702037, -39664.48928886525, -39431.02531802956, -39128.5838638048, -39188.7994633674, -39516.00665044864, -39667.88675402245, -39434.48983842014, -39129.90261672767, -39185.98314356603, -39511.53630155758, -39661.62826557497, -39432.23231223015, -39124.69466026958, -39178.383550451224, -39506.66362126632, -39661.695320808336, -39430.44417267373, -39123.375907346715, -39176.48365217253, -39501.321554341506, -39661.94118999734, -39437.88730357734, -39125.70048877007, -39173.60027713779, -39493.140815870865, -39655.101556194015, -39432.32171920797, -39119.77727648941, -39164.52546888894, -39488.4693012797, -39655.6603498054, -39432.32171920797, -39119.77727648941, -39164.50311714448, -39488.42459779079, -39651.41351835889, -39428.29840520601, -39115.30692759835, -39156.9929310075, -39475.12530983988, -39644.12684966646, -39429.95243429571, -39114.636375264694, -39155.830640295826, -39476.10878659592, -39648.03840494614, -39433.86398957539, -39115.195168876075, -39150.13094545972, -39468.39743475884, -39646.004396200704, -39432.455829674705, -39114.077581653306, -39145.951169246575, -39463.837678889955, -39643.2551316327, -39431.248835474114, -39112.043572907874, -39148.186343692105, -39466.00579810212, -39642.249303132216, -39431.38294594085, -39111.39537231867, -39139.15623893216, -39453.44411771824, -39638.963596697286, -39430.198303484714, -39106.098008882764, -39133.25537839596, -39448.63849266034, -39638.15893389689, -39437.216751243686, -39111.06009615184, -39133.300081884874, -39447.38679497085, -39637.04134667413, -39434.556893653506, -39107.95320367256, -39130.10378242777, -39442.156486768305, -39634.26973036167, -39433.43930643074, -39106.880319938704, -39127.39922134867, -39437.686137877245, -39629.64291925942, -39432.70169886371, -39106.20976760504, -39122.90652071316, -39428.94660579522, -39626.49132329122, -39431.76292559659, -39103.34874431476, -39117.05036366587, -39425.57149238247, -39625.37373606846, -39435.04863203152, -39101.67236348061, -39112.1329798857, -39419.13418997934, -39621.059849388585, -39429.28188196205, -39101.001811146954, -39108.89197693968, -39412.89805327631, -39620.05402088809, -39431.76292559659, -39100.510072768935, -39109.02608740641, -39411.668707331264, -39616.723610964254, -39431.18178024075, -39096.26324132243, -39098.74428495697, -39400.8504630149, -39612.34266905102, -39430.824152329464, -39097.76080820093, -39097.04555237837, -39399.576413580944, -39614.08610511853, -39435.20509424271, -39096.5761657448, -39093.02223837641, -39393.027352455545, -39606.866491659464, -39426.59967262741, -39091.32350579781, -39086.42847376209, -39388.668762286754, -39606.71002944828, -39425.884416804845, -39089.825938919304, -39087.81428191833, -39384.82426224044, -39601.85970090148, -39427.24787321662, -39092.59755523176, -39080.99699985945, -39377.87286971484, -39600.02685785614, -39427.829018572455, -39090.45178776405, -39078.82888064729, -39376.08473015842, -39601.345610779004, -39432.36642269688, -39092.30698255384, -39075.61022944572, -39369.178041121726, -39595.489453731716, -39426.510265649595, -39087.56841272931, -39070.69284566556, -39363.523049774536, -39592.606078696976, -39425.75030633811, -39086.182604573085, -39067.40713923063, -39354.358834547864, -39584.20182278178, -39422.97869002565, -39083.76861617191, -39058.19822051504, -39345.64165421029, -39581.0949303025, -39422.41989641427, -39083.723912683, -39057.68413039257, -39342.959444875654, -39579.55265993508, -39423.984518526144, -39080.88524113718, -39049.8163163443, -39336.87977038381, -39577.76452037865, -39422.19637896972, -39079.09710158075, -39045.88240932017, -39333.97404360462, -39572.78008136512, -39417.077829489455, -39075.02908408989, -39048.922246566086, -39332.16355230374, -39572.35539822047, -39418.955376023696, -39076.750168412946, -39041.21089472901, -39323.28990975498, -39569.7402441192, -39419.00007951261, -39073.73268291148, -39032.04667950233, -39314.52802592851, -39565.426357439326, -39421.36936442487, -39074.649104434146, -39031.33142367976, -39310.50471192655, -39559.92782830332, -39415.08852423293, -39072.145709055156, -39029.87856029017, -39308.53775841448, -39560.039587025596]"
Right,"[-36188.524805131536, -35742.80866894826, -35698.59691841566, -36057.05184424542, -36375.161871333345, -36186.93783127521, -35740.461735780445, -35684.29180196426, -36050.6592453312, -36372.12203408743, -36185.82024405244, -35739.12063111313, -35677.42981641648, -36040.19862892612, -36375.43009226681, -36195.1409214903, -35742.27222708133, -35676.982781527375, -36035.66122480169, -36364.477737483714, -36188.07777024243, -35739.03122413531, -35669.49494713485, -36030.27445438796, -36360.633237437396, -36186.289630686006, -35741.91459917004, -35679.240307717366, -36026.675823530655, -36358.77804264761, -36186.624906852834, -35739.478259024414, -35664.04112148775, -36018.53978854892, -36356.69933041326, -36188.56950862044, -35741.69108172549, -35661.336560408665, -36011.163712878675, -36358.174545547314, -36188.88243304282, -35734.56087524425, -35653.848726016135, -36007.2968610879, -36352.56425768903, -36186.37903766382, -35736.2372560784, -35650.40655737001, -35996.56802374936, -36342.77419361761, -36184.61324985186, -35738.83005843521, -35657.60381908462, -35993.259965569974, -36340.89664708336, -36187.83190105342, -35737.62306423463, -35641.62232179908, -35985.66037245517, -36335.465173180724, -36181.81928179494, -35734.35970954415, -35637.10726941911, -35975.80325315038, -36337.4768301817, -36186.78136906402, -35732.4821630099, -35629.731193748856, -35969.12008155824, -36326.05508876504, -36182.646296339786, -35736.46077352295, -35631.65344377201, -35966.124947801225, -36320.489504395664, -36179.002961993574, -35737.19838108998, -35638.046042686234, -35961.20756402106, -36319.170751472804, -36181.036970739005, -35734.3373577997, -35623.67387100147, -35953.630322650715, -36317.56142587202, -36183.31684867345, -35734.35970954415, -35618.15299012101, -35950.52343017142, -36325.250425964645, -36187.02723825303, -35733.24212232138, -35611.00043189531, -35938.85581956575, -36307.23491993367, -36179.293534671495, -35730.761078686846, -35606.19480683742, -35930.138639228186, -36302.42929487578, -36178.935906760205, -35738.31596831274, -35614.37554530806, -35927.322319426814, -36301.44581811975, -36178.91355501575, -35730.336395542196, -35599.533986989736, -35920.415630390125, -36296.70724829522, -36180.1429009608, -35732.68332871, -35597.76819917777, -35918.29221466687, -36305.02209723259, -36179.65116258278, -35729.3305670417, -35591.643821197016, -35908.01041221743, -36284.927878967275, -36171.13514794531, -35726.02250886232, -35585.29592577171, -35899.60615630224, -36280.70339926522, -36170.889278756295, -35732.996253132376, -35591.196786307904, -35891.134845153676, -36276.90360270782, -36174.0855782134, -35728.14592458557, -35577.13753904552, -35887.51386255191, -36275.696608507234, -36176.65602882577, -35730.9845961314, -35574.008294821775, -35879.95897292602, -36275.24957361812, -36171.20220317867, -35725.68723269549, -35567.70510288538, -35871.59942049973, -36262.1067478784, -36166.26246765405, -35722.93796812749, -35564.48645168381, -35866.45851927502, -36256.250590831114, -36164.54138333099, -35729.576436230716, -35566.14048077351, -35858.546001737835, -36252.22727682916, -36163.91553448624, -35724.99432861737, -35558.920867314446, -35855.30499879181, -36249.2544948166, -36165.658970553755, -35724.92727338401, -35552.8411928226, -35850.27585628937, -36255.200058841714, -36167.044778709984, -35726.04486060677, -35551.768309088744, -35845.80550739831, -36243.7559656806, -36167.335351387905, -35729.419974019525, -35550.53896314371, -35841.08928931824, -36241.54314297952, -36168.05060721047, -35735.723165955926, -35551.008349777265, -35831.343928735725, -36234.12236382036, -36166.217764165136, -35729.50938099735, -35541.10652698357, -35821.17388500856, -36226.12043930536, -36161.90387748526, -35728.81647691923, -35536.23384669231, -35818.692841374024, -36233.541218464525, -36163.35674087486, -35729.64349146408, -35536.390308903494, -35812.836684326736, -36220.197227024706, -36163.423796108225, -35729.37527053062, -35530.243579178285, -35805.57236737876, -36214.07284904395, -36160.29455188448, -35738.31596831274, -35534.289244924694, -35802.01844001036, -36209.40133445279, -36159.62399955082, -35729.911712397545, -35524.1862564309, -35791.98250674993, -36204.171026250246, -36158.171136161225, -35728.302386796764, -35519.067706950635, -35789.83673928222, -36210.40716295328, -36158.796985005974, -35729.576436230716, -35513.50212258126, -35778.86203275467, -36193.688058100706, -36151.957351202655, -35724.524941983815, -35508.89766322347, -35769.58605880571, -36186.04376149699, -36150.79506049098, -35733.756212443855, -35508.00359344525, -35762.36644534665, -36181.81928179494, -36149.72217675712, -35723.16148557204, -35499.57698578561, -35757.873744711134, -36176.1866421922, -36150.16921164623, -35729.352918786164, -35500.38164858599, -35757.69493075549, -36185.440264396704, -36151.93499945819, -35729.3305670417, -35495.084285150086, -35743.45686953746, -36164.76490077554, -36146.8835052113, -35727.430668763, -35492.31266883763, -35739.634721235605, -36164.675493797724]","[-39417.43545740074, -39072.57039219981, -39028.17982771157, -39300.35701994384, -39553.55758113356, -39414.954413766194, -39070.53638345437, -39020.51317936339, -39296.42311291971, -39550.76361307664, -39413.367439909875, -39068.88235436468, -39014.165283938084, -39286.85656629283, -39549.958950276254, -39417.72603007866, -39071.31869451031, -39014.09822870472, -39283.14617671325, -39543.36518566194, -39414.485027132636, -39067.943581097556, -39007.30329839031, -39278.854641777834, -39539.99007224919, -39412.42866664275, -39069.262334020415, -39011.08074320325, -39274.7195690536, -39537.91136001484, -39412.093390475915, -39067.474194464, -39002.72119077697, -39268.68459805067, -39536.257330925146, -39413.635660843334, -39069.485851464975, -39000.553071564806, -39262.20259215863, -39533.01632797913, -39409.61234684138, -39061.59568567225, -38993.355809850196, -39259.1180514238, -39532.546941345565, -39410.506416619595, -39063.2720665064, -38990.561841793286, -39249.506801308016, -39523.13685692989, -39408.36064915188, -39063.674397906594, -38991.99235343842, -39246.24344661754, -39521.214606906724, -39410.86404453088, -39063.62969441768, -38982.60462076719, -39240.43199305916, -39516.09605742646, -39404.53850085002, -39060.09811879374, -38978.78247246533, -39231.603053999315, -39513.14562715836, -39405.83490202843, -39057.57237167029, -38971.8981351731, -39226.01511788549, -39507.4235805778, -39404.51614910557, -39061.48392694997, -38974.33447531873, -39224.00346088451, -39502.10386539744, -39400.24696591461, -39059.405214715625, -38975.317952074765, -39219.26489105998, -39500.76276073012, -39401.677477559744, -39058.24292400395, -38967.22662058194, -39213.341678779325, -39499.80163571854, -39403.89030026082, -39057.90764783712, -38962.175126335045, -39210.81593165588, -39501.74623748616, -39404.35968689438, -39056.052453047334, -38955.26843729835, -39200.24355652852, -39489.76570245811, -39398.72704729164, -39053.23613324596, -38950.909847129566, -39192.53220469144, -39485.34005705596, -39397.9000327468, -39057.460612948016, -38954.128498331134, -39190.341733734815, -39484.669504722304, -39397.497701346605, -39051.96208381201, -38945.254855782376, -39184.73144587653, -39480.400321531335, -39398.45882635818, -39054.085499535264, -38944.15962030407, -39182.92095457565, -39482.81430993251, -39395.46369260117, -39049.92807506658, -38938.16935279004, -39174.203774238085, -39469.31385628151, -39388.8475762424, -39046.50825816492, -38932.13438178711, -39166.38066367873, -39465.178783557276, -39387.93115471973, -39049.25752273292, -38933.25196900988, -39158.51284963046, -39461.446042233234, -39390.32279137645, -39047.178810498575, -38924.691250883494, -39156.165916462654, -39460.77548989958, -39392.69207628871, -39049.52574366638, -38921.80787584876, -39148.49926811448, -39454.271132263086, -39385.27129712955, -39043.62488313018, -38915.974070545926, -39142.039613966896, -39447.85618160441, -39381.56090754997, -39040.69680460654, -38913.3365647002, -39138.061003453855, -39442.49176293513, -39379.392788337806, -39042.551999396324, -38910.721410598926, -39130.66257603915, -39438.64726288882, -39378.342256348405, -39041.501467406924, -38908.329773942205, -39128.472105082525, -39436.076812276464, -39379.795119738, -39041.14383949564, -38902.8312448062, -39123.375907346715, -39436.14386750983, -39379.41514008226, -39041.43441217356, -38902.115988983634, -39120.89486371218, -39431.36059419639, -39380.68918951621, -39044.67541511958, -38901.53484362779, -39117.45269506606, -39429.795972084525, -39381.11387266086, -39045.6141883867, -38898.09267498168, -39108.08731413929, -39422.37519292536, -39378.677532515234, -39043.267255218896, -38892.41533189003, -39099.21367159053, -39415.177931210754, -39374.25188711308, -39042.082612762766, -38887.78852078778, -39095.79385468887, -39416.49668413361, -39374.207183624174, -39042.23907497395, -38888.36966614362, -39092.619906976215, -39410.014678241576, -39375.10125340238, -39041.8143918293, -38882.78173002979, -39086.36141852873, -39404.47144561666, -39371.54732603399, -39044.83187733077, -38883.69815155246, -39083.41098826063, -39400.001096725595, -39370.38503532232, -39040.98737728446, -38877.48436659388, -39074.73851141197, -39395.41898911226, -39368.820413210444, -39039.065127261296, -38872.63403804708, -39071.40810148813, -39395.888375745824, -39368.17221262124, -39039.48981040595, -38867.24726763336, -39063.339121739766, -39385.807738996475, -39361.8913724293, -39034.05833650331, -38863.06749142021, -39054.867810591204, -39378.56577379296, -39360.103232872876, -39037.00876677141, -38859.625322774096, -39048.40815644362, -39374.900087702285, -39359.07505262793, -39031.59964461323, -38854.35031108264, -39045.25656047542, -39369.98270392212, -39359.29857007248, -39037.321691193785, -38855.71376749442, -39043.468420918995, -39374.18483187972, -39360.237343339606, -39036.51702839339, -38850.48345929187, -39032.694880091534, -39359.54443926149, -39355.25290432607, -39034.05833650331, -38848.24828484634, -39030.0126707569, -39360.17028810624]"
Neutral,"[-36149.073976167914, -35738.584189246205, -35495.17369212791, -35736.50547701186, -36158.99815070607, -36145.587104032886, -35726.290729795786, -35484.042523389166, -35724.659052450545, -36148.33636860089, -36138.56865627392, -35722.11095358264, -35477.62757273049, -35725.083735595195, -36157.52293557202, -36145.09536565487, -35728.16827633003, -35475.7723779407, -35712.96909010042, -36139.61918826332, -36135.953502172655, -35720.680441937504, -35471.01145637172, -35708.34227899817, -36137.562827773436, -36140.80383071945, -35737.935988657, -35474.2748110622, -35703.24608126236, -36131.460801537134, -36133.11483062683, -35724.70375593946, -35467.032845858674, -35695.937060825476, -36127.39278404627, -36136.981682417594, -35729.46467750844, -35466.33994178056, -35699.33452598268, -36134.83591494989, -36139.798002218966, -35730.69402345348, -35465.28940979116, -35687.66691537701, -36121.64838572125, -36137.74164172907, -35731.11870659813, -35463.411863256915, -35683.420083930505, -36116.88746415228, -36138.76982197402, -35744.84267769369, -35464.529450479684, -35674.904069293036, -36106.091571580364, -36129.73971721408, -35726.268378051325, -35451.09605206204, -35667.34917966714, -36100.637745933265, -36125.939920656674, -35725.7319361844, -35446.223371770786, -35666.835089544664, -36100.54833895544, -36123.48122876659, -35724.27907279481, -35441.887133346456, -35653.088766704655, -36090.11007429482, -36126.05167937895, -35727.430668763, -35440.6130839125, -35645.7126910344, -36082.35401896883, -36124.93409215619, -35740.14881135807, -35441.93183683537, -35642.024653199274, -36076.92254506618, -36118.83206591989, -35725.150790828564, -35432.67821463087, -35632.81573448369, -36069.56882114039, -36115.85928390733, -35724.390831517085, -35428.610197140006, -35634.53681880675, -36069.27824846247, -36114.8758071513, -35724.70375593946, -35423.983386037755, -35620.25405409981, -36059.3093704354, -36114.406420517735, -35728.05651760775, -35424.743345349234, -35615.51548427528, -36058.08002449036, -36124.19648458916, -35745.40147130507, -35427.15733375041, -35610.9557284064, -36048.491126119035, -36113.04296410596, -35730.336395542196, -35420.11653424699, -35604.60783298109, -36043.394928383226, -36111.16541757172, -35730.336395542196, -35416.652013856416, -35608.18411209394, -36045.630102828756, -36111.21012106063, -35732.59392173218, -35416.67436560087, -35594.57189972066, -36033.94014047863, -36109.95842337113, -35732.415107776535, -35411.80168530961, -35588.201652550895, -36027.52518981996, -36110.74073442707, -35743.613331748646, -35412.36047892099, -35582.56901294816, -36020.77496299445, -36104.23637679057, -35734.56087524425, -35406.2584526847, -35572.10839654307, -36011.83426521233, -36100.12365581079, -35729.64349146408, -35401.274013671165, -35578.25512626828, -36012.30365184589, -36098.31316450991, -35730.02347111982, -35400.491702615225, -35563.77119586125, -36002.40182905219, -36098.111998809814, -35733.37623278812, -35399.15059794791, -35558.18325974742, -35996.612727238266, -36100.95067035564, -35742.54044801479, -35395.97665023526, -35552.72943410032, -35992.03061962493, -36093.10520805183, -35731.78925893179, -35391.103969944, -35544.54869562968, -35983.35814277627, -36090.11007429482, -35731.92336939852, -35391.66276355538, -35549.37667243203, -35981.83822415331, -36088.43369346067, -35733.487991510396, -35387.214766408775, -35534.49041062479, -35973.52337521593, -36087.13729228226, -35735.05261362226, -35383.68319078484, -35526.44378262088, -35965.25322976747, -36090.490053950554, -35742.60750324816, -35383.86200474048, -35524.588587831095, -35961.31932274334, -36083.918641080694, -35738.27126482383, -35381.29155412812, -35518.75478252826, -35956.133718029705, -36084.209213758615, -35735.991386889385, -35376.77650174815, -35518.866541250536, -35949.696415626575, -36079.42594044518, -35735.007910133354, -35375.56950754756, -35506.03663993319, -35941.76154634495, -36078.30835322241, -35737.377195045614, -35371.38973133442, -35498.50410205175, -35938.40878467665, -36085.57267017039, -35745.44617479398, -35372.30615285708, -35495.95600318384, -35931.83737180679, -36073.39096944225, -35737.377195045614, -35369.08750165552, -35485.83066294559, -35918.11340071123, -36065.52315539398, -35734.00208163286, -35365.86885045396, -35491.44095080387, -35916.03468847689, -36062.90800129271, -35731.588093231694, -35358.87275443945, -35473.201927328344, -35906.423438361104, -36059.5105361355, -35731.69985195397, -35356.92815267183, -35466.51875573621, -35901.86368249222, -36068.89826880673, -35741.087584625195, -35354.8941439264, -35460.550839966636, -35892.319487609806, -36055.35311166682, -35733.15271534356, -35351.65314098038, -35454.58292419707, -35885.72572299549, -36052.04505348743, -35730.87283740912, -35349.105042112475, -35457.44394748735, -35878.126129880686, -36048.357015652306, -35732.638625221094, -35345.21583857726, -35440.6130839125, -35872.29232457785, -36045.473640617565, -35732.66097696555, -35345.90874265537, -35441.4177467129, -35868.09019662025]","[-39356.817526437946, -39038.662795861106, -38849.20940985792, -39027.66573758909, -39354.76116594805, -39353.241247325095, -39031.77845856887, -38840.313415564706, -39016.60162408371, -39344.76993617653, -39346.26750305504, -39027.2634061889, -38834.34549979514, -39014.67937406056, -39349.396747278784, -39352.07895661342, -39032.426659158074, -38832.557360238716, -39006.74450477892, -39337.12563957282, -39343.04885185348, -39024.62590034317, -38828.19877006993, -39002.922356477065, -39335.5833692054, -39346.75924143306, -39034.99710977043, -38829.74104043735, -38998.38495235264, -39329.92837785821, -39339.673738440724, -39027.48692363345, -38824.73424967936, -38992.39468483862, -39326.48620921209, -39343.18296232021, -39031.62199635768, -38824.220159556884, -38992.57349879426, -39329.72721215811, -39345.28402629901, -39031.77845856887, -38823.2143310564, -38985.778568479844, -39321.859398109846, -39343.42883150921, -39032.04667950233, -38821.716764177894, -38982.4034550671, -39317.59021491888, -39342.98179662011, -39038.90866505011, -38821.80617115572, -38974.535641018825, -39307.42017119171, -39334.7340029161, -39025.855246288214, -38809.93739484995, -38968.07598687124, -39302.525139156, -39330.91185461424, -39024.78236255436, -38805.17647328097, -38963.82915542473, -39298.993563532065, -39327.76025864604, -39022.30131891982, -38800.77317962327, -38955.33549253172, -39293.13740648478, -39330.375412747315, -39025.18469395455, -38799.901461589514, -38948.96524536196, -39286.18601395917, -39327.46968596813, -39030.92909227957, -38800.43790345644, -38946.10422207168, -39281.31333366792, -39322.68641265469, -39021.56371135279, -38792.234813241346, -38937.87878011212, -39274.58545858687, -39319.53481668649, -39020.1108479632, -38788.34560970612, -38935.42008822204, -39271.70208355213, -39318.17136027472, -39019.48499911845, -38783.830557326146, -38927.149942773576, -39265.75651952702, -39317.43375270769, -39022.368374153186, -38784.948144548915, -38923.439553193995, -39265.24242940455, -39325.145104544776, -39033.119563236185, -38786.8033393387, -38919.46094268095, -39256.14526941124, -39315.5785579179, -39023.44125788704, -38780.678961357946, -38914.29768971178, -39251.9654931981, -39313.85747359484, -39022.994222997935, -38777.192089222925, -38913.090695511186, -39252.12195540928, -39313.477493939106, -39024.40238289862, -38777.5050136453, -38905.93813728549, -39243.896513449734, -39312.18109276069, -39023.888292776144, -38772.87820254305, -38900.35020117166, -39238.174466869175, -39310.169435759715, -39028.62686260067, -38773.05701649869, -38895.49987262486, -39232.18419935515, -39305.92260431321, -39024.447086387525, -38767.469080384864, -38886.179195187, -39223.981109140055, -39301.76517984452, -39019.19442644053, -38762.17171694896, -38886.58152658719, -39222.59530098383, -39299.53000539899, -39018.61328108469, -38761.81408903767, -38879.2278026614, -39215.88977764723, -39299.37354318781, -39021.36254565269, -38760.696501814906, -38874.578639814696, -39210.79357991142, -39298.993563532065, -39024.62590034317, -38757.18727793542, -38869.7730147568, -39206.94907986511, -39293.96442102962, -39018.63563282915, -38752.87339125555, -38862.70986350893, -39199.170672794666, -39291.081045994884, -39018.41211538459, -38752.87339125555, -38862.10636640863, -39196.75668439349, -39289.31525818292, -39019.19442644053, -38749.11829818706, -38853.99268317135, -39190.699361646104, -39287.795339559954, -39020.02144098538, -38745.81024000767, -38847.04129064576, -39183.367989464765, -39287.1247872263, -39022.03309798636, -38745.49731558529, -38845.700185978436, -39180.26109698547, -39284.12965346929, -39021.74252530844, -38743.32919637313, -38840.89456092055, -39175.880155072235, -39284.509633125024, -39018.926205507065, -38737.71890851485, -38835.50779050682, -39168.83935556881, -39279.30167666694, -39017.249824672916, -38737.540094559205, -38829.65163345953, -39162.91614328815, -39278.27349642199, -39019.23912992944, -38733.60618753507, -38823.035517100754, -39160.47980314252, -39280.97805750109, -39022.41307764209, -38734.254388124275, -38821.15797056651, -39154.73540481751, -39273.19965043064, -39017.76391479539, -38731.10279215608, -38811.90434836201, -39141.838448266804, -39265.33183638237, -39013.98646998245, -38726.61009152056, -38811.94905185093, -39139.49151509899, -39262.47081309209, -39010.81252226979, -38721.06685889565, -38800.86258660109, -39131.89192198419, -39259.25216189053, -39010.56665308078, -38719.23401585031, -38795.11818827608, -39128.09212542679, -39263.45428984812, -39015.57344383877, -38716.931786171415, -38789.82082484017, -39119.57611078931, -39254.98297869956, -39010.745467036424, -38714.16016985896, -38784.83638582664, -39113.78700897539, -39251.60786528682, -39007.884443746145, -38709.53335875671, -38782.154176492, -39106.14271237168, -39247.67395826268, -39008.867920502176, -38707.40994303345, -38772.34176067612, -39102.16410185863, -39245.036452416956, -39008.62205131317, -38708.326364556124, -38773.88403104353, -39098.54311925687]"
Left,"[-36055.554277366915, -35741.40050904757, -35342.93596064281, -35430.33128146306, -35858.546001737835, -36041.47267836007, -35733.01860487683, -35340.61137921946, -35427.20203723932, -35855.99790286993, -36041.495030104525, -35735.65611072256, -35347.87569616744, -35432.92408381988, -35847.39248125464, -36036.37648062426, -35731.16341008704, -35333.99526286069, -35412.740458576736, -35838.87646661716, -36032.04024219993, -35730.179933331005, -35333.77174541614, -35412.04755449862, -35836.61894042718, -36040.48920160403, -35735.566703744735, -35331.55892271506, -35401.36342064899, -35824.52664667686, -36028.53101832045, -35732.25864556535, -35330.91072212586, -35400.1564264484, -35819.07282102976, -36021.89255021722, -35731.029299620306, -35333.32471052703, -35402.0563247271, -35815.22832098345, -36024.1053729183, -35731.34222404268, -35324.38401274491, -35388.891147242924, -35808.768666835866, -36019.56796879387, -35730.51520949784, -35321.433582476806, -35380.710408772284, -35801.45964639898, -36026.385250852734, -35734.3373577997, -35321.85826562146, -35378.13995815992, -35794.37414340665, -36013.26477685747, -35729.82230541972, -35313.99045157319, -35366.2488301097, -35782.1477391896, -36005.93340467613, -35728.570607730224, -35321.99237608819, -35372.30615285708, -35779.89021299961, -36006.402791309694, -35731.230465320405, -35316.02446031862, -35359.72212072875, -35772.84941349619, -36000.70309647359, -35729.39762227507, -35313.878692850914, -35354.53651601512, -35768.80374774978, -36013.37653557975, -35734.538523499796, -35310.101248037965, -35347.76393744516, -35759.10309065617, -35997.19387259411, -35731.230465320405, -35309.38599221539, -35342.824201920535, -35751.25762835236, -35993.662296970164, -35730.69402345348, -35317.298509752574, -35349.41796653485, -35748.62012250663, -35991.717695202555, -35732.30334905426, -35310.525931182616, -35337.97387337373, -35744.529753271316, -35993.57288999235, -35735.16437234454, -35309.94478582678, -35333.95055937178, -35741.512267769845, -35998.95966040607, -35735.16437234454, -35306.055582291556, -35327.20033254628, -35730.71637519793, -35987.113235844765, -35736.43842177849, -35309.09541953748, -35322.93114935531, -35724.100258839164, -35981.07826484183, -35733.64445372158, -35311.73292538321, -35323.735812155704, -35719.920482626025, -35980.29595378589, -35732.81743917673, -35301.33936421148, -35309.92243408232, -35707.895244109066, -35974.28333452741, -35732.012776376345, -35298.903024065854, -35304.69212587978, -35703.46959870691, -35979.17836656313, -35730.00111937537, -35294.99146878618, -35298.299526965566, -35693.433665446486, -35965.18617453411, -35728.4812007524, -35295.17028274182, -35293.98564028569, -35687.331639210184, -35962.705130899565, -35730.35874728665, -35304.96034681325, -35297.1819397428, -35681.54253739626, -35956.84897385228, -35727.29655829627, -35294.00799203014, -35284.82142505902, -35675.35110418214, -35957.675988397124, -35729.5317327418, -35291.77281758461, -35280.28402093459, -35674.21116521492, -35964.78384313391, -35731.29752055377, -35291.97398328471, -35275.74661681016, -35661.738891808855, -35949.62936039321, -35726.60365421816, -35288.48711114968, -35270.69512256326, -35653.73696729386, -35943.97436904602, -35726.51424724034, -35297.450160676264, -35267.9235062508, -35645.042138700745, -35941.02393877792, -35726.87187515162, -35285.06729424802, -35256.79233751206, -35636.52612406327, -35937.06768000933, -35728.4812007524, -35286.58721287098, -35253.03724444357, -35635.587350796144, -35944.935494057594, -35730.35874728665, -35286.52015763762, -35250.399738597844, -35623.651519257015, -35926.16002871514, -35720.09929658166, -35277.89238427787, -35240.52026754859, -35614.219083096876, -35921.890845524176, -35720.45692449295, -35287.01189601563, -35237.77100298059, -35606.53008300425, -35916.05704022134, -35721.57451171571, -35277.959439511236, -35231.89249418885, -35601.970327135365, -35917.44284837757, -35725.26254955084, -35280.529890123595, -35229.702023232225, -35603.04321086922, -35924.14837171416, -35723.87674139461, -35278.562936611524, -35224.49406677414, -35588.64868744, -35910.133827940685, -35721.64156694908, -35275.94778251026, -35220.24723532763, -35583.64189668201, -35906.95988022803, -35724.390831517085, -35286.900137293356, -35216.1121626034, -35575.28234425573, -35903.137731926174, -35722.60269196066, -35275.32193366551, -35207.99847936612, -35566.252239495785, -35896.29809812285, -35721.19453205998, -35274.092587720465, -35203.19285430823, -35566.02872205123, -35897.95212721254, -35715.159561057044, -35268.39289288436, -35195.21328153769, -35551.07540501063, -35886.19510962905, -35715.76305815733, -35269.53283185158, -35190.34060124643, -35541.26298919475, -35879.646048503644, -35718.15469481405, -35282.005105257645, -35190.60882217989, -35538.06668973764, -35881.7694642269, -35720.479276237405, -35270.69512256326, -35181.466958697674, -35528.88012276651, -35874.57220251229, -35714.936043612484, -35268.41524462882, -35178.91885982977, -35532.16582920144]","[-39249.48444956356, -39013.74060079343, -38705.107713354555, -38763.557525105185, -39090.13886334168, -39241.035490159455, -39007.77268502387, -38702.96194588685, -38761.23294368183, -39088.52953774089, -39241.2143041151, -39009.89610074712, -38707.67816396691, -38761.79173729321, -39079.99117135897, -39235.5593127679, -39004.330516377755, -38695.83173940561, -38748.06776619766, -39072.81626138881, -39231.40188829922, -39003.01176345489, -38695.76468417224, -38748.22422840884, -39071.31869451031, -39234.128801122766, -39005.42575185606, -38693.35069577106, -38738.300053870684, -39060.3663397272, -39227.84796093082, -39003.88348148864, -38692.83660564859, -38737.897722470494, -39055.87363909169, -39221.589472483334, -39002.40826635459, -38692.21075680384, -38734.969643946846, -39052.54322916785, -39223.39996378421, -39001.78241750985, -38685.97462010082, -38727.973547932335, -39047.379976198674, -39219.220187571074, -39000.79894075381, -38683.158300299445, -38720.53041702872, -39040.450935417524, -39220.02485037147, -39002.09534193222, -38683.426521232905, -38718.76462921675, -39034.84064755925, -39213.16286482369, -38999.010801197386, -38675.73752114028, -38707.87932966701, -39023.7094788205, -39205.876196131256, -38997.1556064076, -38680.0290560757, -38709.53335875671, -39021.943691008535, -39206.077361831354, -38998.921394219564, -38677.36919848552, -38702.49255925328, -39016.17694093906, -39200.53412920644, -38996.686219774034, -38675.08932055108, -38698.111617340044, -39012.086571703745, -39206.9043763762, -38999.837815742234, -38670.9765995713, -38691.696666681375, -39004.106998933195, -39197.11431230477, -38997.401475596605, -38670.17193677091, -38687.67335267942, -38997.401475596605, -39193.71684714757, -38996.32859186275, -38673.81527111713, -38690.66848643643, -38995.501577317904, -39191.83930061332, -38997.42382734106, -38671.066006549125, -38684.18648054439, -38992.506443560895, -39193.69449540311, -38999.636650042135, -38670.26134374873, -38680.83371887609, -38989.04192317032, -39192.867480858265, -38997.91556571908, -38665.969808813315, -38674.44111996188, -38980.43650155503, -39187.503062189, -38999.927222720056, -38669.099053037055, -38671.334227482585, -38975.0497311413, -39181.6469051417, -38996.61916454067, -38666.863878591525, -38669.00964605923, -38971.58521075072, -39180.775187107945, -38995.166301151075, -38661.074776777605, -38659.666616876915, -38960.7446146899, -39174.963733549564, -38993.93695520603, -38658.45962267633, -38655.062157519125, -38955.67076869855, -39173.82379458234, -38990.47243481546, -38654.212791229824, -38649.22835221629, -38948.115879072655, -39166.20184972308, -38989.31014410379, -38654.3245499521, -38645.763831825716, -38943.19849529249, -39163.83256481082, -38990.47243481546, -38658.39256744296, -38646.36732892601, -38938.057594067766, -39158.17757346363, -38987.276135358356, -38652.69287260686, -38637.76190731071, -38933.028451565326, -39159.093994986295, -38988.885460959136, -38650.234180716776, -38633.9174072644, -38930.52505618633, -39160.21158220906, -38989.13133014814, -38649.76479408322, -38629.670575817894, -38921.15967525955, -39151.24853268248, -38984.884498701635, -38646.27792194819, -38625.35668913802, -38914.25298622286, -39145.75000354648, -38983.833966712235, -38649.09424174955, -38620.70752629131, -38906.27341345232, -39142.73251804501, -38983.833966712235, -38642.23225620178, -38612.906767476416, -38899.12085522662, -39139.22329416553, -38985.10801614619, -38643.57336086909, -38609.84457848604, -38896.4833493809, -39141.50317209997, -38985.800920224305, -38642.947512024344, -38607.56470055159, -38888.03438997679, -39128.51680857144, -38975.653228241594, -38634.23033168678, -38598.48989230274, -38879.89835499506, -39124.58290154731, -38974.960324163476, -38636.91254102141, -38594.01954341168, -38872.74579676936, -39118.72674450001, -38975.92144917505, -38633.55977935312, -38590.82324395457, -38869.54949731225, -39120.49253231198, -38979.14010037662, -38636.040822987656, -38589.59389800953, -38868.36485485612, -39122.325375357315, -38977.01668465337, -38633.4703723753, -38584.67651422936, -38858.150107640045, -39113.47408455302, -38974.692103230016, -38630.83286652957, -38581.27904907215, -38854.283255849274, -39110.657764751646, -38976.010856152876, -38635.12440146499, -38576.138147847436, -38846.683662734475, -39106.92502342761, -38974.602696252194, -38629.31294790661, -38570.08082510005, -38838.88290391957, -39100.46536928003, -38972.68044622904, -38627.860084517015, -38565.856345397995, -38835.574845740186, -39097.73845645648, -38965.90786765908, -38621.80276176963, -38558.524973216656, -38825.82948515767, -39090.8764709087, -38966.31019905928, -38622.40625886992, -38554.12167955896, -38817.02289784228, -39084.59563071676, -38967.0478066263, -38628.19536068384, -38553.696996414306, -38814.74301990784, -39086.942563884564, -38970.10999561668, -38622.87564550348, -38546.58914167752, -38806.91990934848, -39080.14763357015, -38963.985617635924, -38620.26049140221, -38544.57748467654, -38806.51757794828]"
Neutral,"[-35876.025065901886, -35714.48900872338, -35266.336532394474, -35170.82752833695, -35514.15032317046, -35864.983304140966, -35712.63381393359, -35264.660151560325, -35169.39701669181, -35511.15518941345, -35861.85405991722, -35713.930215112, -35272.10328246395, -35162.33386544393, -35499.80050323016, -35854.85796390271, -35711.96326159993, -35262.46968060371, -35156.231839207634, -35491.731523481794, -35847.48188823246, -35707.761133642336, -35262.38027362589, -35152.76731881706, -35492.60324151555, -35851.30403653432, -35711.02448833281, -35261.665017803316, -35148.18521120372, -35479.88509892048, -35842.83272538576, -35708.722258653914, -35261.95559048124, -35144.139545457314, -35473.336037795074, -35839.70348116201, -35710.71156391044, -35266.895326005855, -35135.98115873113, -35462.00370335623, -35829.5557891793, -35703.424895218006, -35256.412357856316, -35131.823734262434, -35454.49351721925, -35827.007690311395, -35702.19554927296, -35255.2724188891, -35125.16291441476, -35454.2699997747, -35822.894969331624, -35702.30730799524, -35256.479413089684, -35121.45252483518, -35440.05429030112, -35814.66952737207, -35697.121703281606, -35249.75153800864, -35113.71882125364, -35430.37598495197, -35810.6015098812, -35701.21207251693, -35259.85452650244, -35110.030783418515, -35423.13401974845, -35805.52766388985, -35698.44045620447, -35252.59020955446, -35105.538082782994, -35415.82499931157, -35800.2526521984, -35695.646488147555, -35250.6679595313, -35101.93945192569, -35420.854141814016, -35799.76091382038, -35695.378267214095, -35250.64560778685, -35097.312640823446, -35403.643298583425, -35789.30029741529, -35691.19849100095, -35249.34920660844, -35092.127036109814, -35397.630679324946, -35787.51215785887, -35698.88749109358, -35257.30642763453, -35086.58380348489, -35386.41010360838, -35779.15260543259, -35691.91374682352, -35247.42695658529, -35082.538137738484, -35381.17979540584, -35777.81150076527, -35691.28789797877, -35251.29380837605, -35082.60519297185, -35386.030123952645, -35776.17982342003, -35692.18196775699, -35251.78554675407, -35080.12414933731, -35372.28380111263, -35768.87080298315, -35690.68440087848, -35250.2209246422, -35072.65866668924, -35361.73377772973, -35762.54525930229, -35695.35591546964, -35258.848698001944, -35069.93175386569, -35356.9952079052, -35759.86304996766, -35687.86808107711, -35248.90217171934, -35063.69561716266, -35349.75324270168, -35754.49863129838, -35688.53863341077, -35252.9701892102, -35065.66257067473, -35356.83874569401, -35754.34216908719, -35689.41035144453, -35256.88174448988, -35061.929829350694, -35336.85628615097, -35741.244046836386, -35682.41425543002, -35247.82928798548, -35049.614018155815, -35325.74746915668, -35737.01956713433, -35689.03037178879, -35253.685445032774, -35047.13297452128, -35322.14883829938, -35734.315006055236, -35681.475482162896, -35247.00227344064, -35043.668454130704, -35313.78928587309, -35728.01181411884, -35682.235441474375, -35251.0702909315, -35043.668454130704, -35319.17605628682, -35725.21784606193, -35682.03427577428, -35253.03724444357, -35038.75107035054, -35300.44529443327, -35713.282014522796, -35675.97695302689, -35248.61159904142, -35032.2690644585, -35294.879710063906, -35710.5774534437, -35684.314153708714, -35254.06542468851, -35026.88229404477, -35284.19557621427, -35701.524996939304, -35672.937115780966, -35247.65047402984, -35022.568407364895, -35277.35594241094, -35696.51820618132, -35669.45024364594, -35244.7670989951, -35019.88619803026, -35280.5745936125, -35692.226671245895, -35668.95850526792, -35246.89051471836, -35015.728773561576, -35265.286000405074, -35685.87877582059, -35668.57852561218, -35247.538715307564, -35010.3643548923, -35257.84286950146, -35682.74953159685, -35678.43564491697, -35255.54063982256, -35010.45376187012, -35253.327817121484, -35679.75439783983, -35670.92545877999, -35253.73014852168, -35009.22441592508, -35247.49401181865, -35671.50660413583, -35664.130528465575, -35250.51149732012, -35005.022287967484, -35246.93521820727, -35665.806909299725, -35662.99058949835, -35246.84581122945, -34995.83572099635, -35230.50668603262, -35657.53676385126, -35659.90604876352, -35250.64560778685, -34995.63455529625, -35227.042165642044, -35658.54259235175, -35672.42302565849, -35257.14996542334, -34992.2594418835, -35219.576682993975, -35649.28897014725, -35659.34725515214, -35249.39391009735, -34986.58209879185, -35213.54171199104, -35643.991606711345, -35656.26271441731, -35249.1703926528, -34987.65498252571, -35214.99457538063, -35638.9624642089, -35653.58050508267, -35247.7175292632, -34975.8532614533, -35195.660316426794, -35628.77006873728, -35648.70782479141, -35244.34241585045, -34968.655999738694, -35183.2550982541, -35621.17047562247, -35655.458051616915, -35245.12472690639, -34961.99517989101, -35174.22499349416, -35610.59810049512, -35641.24234214334, -35244.49887806164, -34964.744444459015, -35173.86736558287, -35608.09470511612, -35640.281217131764, -35242.53192454957, -34965.035017136935, -35172.39215044882]","[-39077.8230521468, -38962.868030413156, -38617.69004078985, -38536.977891561735, -38794.11235977559, -39070.89401136566, -38960.632855967626, -38615.52192157769, -38535.94971131679, -38792.145406263524, -39068.21180203102, -38959.96230363397, -38616.37128786699, -38528.48422866872, -38781.595382880616, -39061.48392694997, -38959.090585600214, -38612.57149130959, -38523.92447279984, -38774.68869384393, -39054.44312744655, -38954.46377449796, -38611.990345953745, -38520.86228380946, -38771.42533915345, -39055.33719722476, -38957.213039065966, -38610.9621657088, -38516.88367329641, -38764.94333326141, -39050.57627565578, -38954.77669892034, -38610.939813964345, -38513.57561511703, -38759.69067331441, -39047.98347329897, -38954.28496054232, -38609.44224708584, -38505.35017315748, -38749.34181563161, -39038.03694701636, -38948.674672684036, -38604.569566794584, -38502.4891498672, -38742.97156846185, -39035.95823478201, -38947.28886452781, -38603.1614068939, -38496.1859579308, -38738.07653642613, -39029.52093237888, -38946.66301568306, -38603.742552249736, -38493.0343619626, -38730.67810901143, -39024.42473464307, -38941.29859701379, -38596.746456235225, -38486.150024670365, -38722.22914960732, -39020.93786250804, -38942.34912900319, -38600.70271500382, -38482.35022811297, -38715.94830941538, -39016.35575489471, -38941.969149347446, -38598.780464980664, -38479.19863214477, -38710.02509713473, -39011.61718507018, -38939.06342256825, -38596.63469751295, -38475.68940826529, -38710.09215236809, -39009.51612109139, -38938.43757372351, -38596.03120041266, -38471.84490821897, -38699.89975689647, -39001.67065878757, -38933.9895765769, -38594.55598527861, -38467.218097116725, -38694.93766962739, -39000.3072023758, -38937.94583534549, -38596.56764227959, -38461.78662321408, -38684.65586717795, -38992.26057437189, -38933.69900389898, -38591.44909279932, -38458.56797201252, -38680.58784968709, -38991.455911571495, -38933.09550679869, -38595.070075401076, -38458.389158056874, -38680.297277009166, -38988.61724002567, -38933.34137598769, -38594.91361318989, -38457.11510862292, -38673.81527111713, -38983.699856245505, -38931.86616085365, -38593.01371491119, -38450.38723354188, -38664.47224193481, -38977.821347453755, -38932.22378876493, -38596.50058704622, -38447.66032071833, -38660.49363142176, -38975.452062541495, -38928.267529996345, -38590.64442999893, -38442.251198560145, -38654.54806739665, -38970.71349271697, -38928.7369166299, -38594.26541260069, -38443.45819276073, -38656.313855208624, -38969.75236770539, -38929.20630326346, -38597.61817426899, -38441.357128781936, -38643.863933547014, -38958.68825420002, -38922.120800271136, -38588.25279334221, -38429.600111198444, -38633.9174072644, -38955.0449198538, -38923.81953284974, -38589.32567707606, -38427.05201233054, -38630.87757001848, -38952.742690174906, -38920.33266071471, -38585.97291540777, -38424.280396018075, -38623.76971528169, -38946.95358836098, -38920.84675083718, -38589.59389800953, -38423.34162275096, -38623.99323272624, -38943.6902336705, -38920.13149501461, -38590.97970616576, -38420.21237852721, -38612.66089828741, -38933.25196900988, -38913.69419261148, -38586.08467413005, -38414.22211101319, -38608.16819765189, -38931.08384979771, -38916.868140324135, -38587.40342705291, -38408.835340599464, -38598.288726602645, -38922.61253864915, -38910.25202396537, -38583.894203173426, -38405.30376497552, -38592.834900955546, -38918.343355458186, -38906.69809659697, -38580.78731069414, -38401.16869225129, -38590.89029918794, -38914.074172267225, -38905.826378563215, -38582.03900838363, -38399.15703525031, -38582.68720897284, -38909.00032627587, -38905.31228844074, -38582.3072293171, -38394.35141019242, -38576.51812750317, -38906.36282043014, -38909.3356024427, -38586.84463344153, -38394.48552065915, -38572.852441412506, -38904.149997729066, -38907.16748323053, -38587.40342705291, -38393.83732006995, -38568.06916809907, -38896.528052869806, -38900.149035471564, -38583.64833398442, -38387.62353511137, -38562.79415640762, -38891.074227222714, -38898.56206161524, -38579.24504032672, -38381.007418752604, -38553.18290629183, -38883.92166899701, -38895.32105866922, -38582.486043272744, -38381.2085844527, -38550.545400446106, -38885.061607964235, -38901.624250605615, -38586.03997064113, -38377.989933251134, -38544.21985676526, -38876.76911077131, -38894.22582319091, -38579.98264789375, -38372.87138377087, -38539.12365902944, -38872.187003157975, -38890.850709778155, -38579.11092985999, -38370.99383723662, -38536.10617352798, -38867.426081588994, -38887.65441032105, -38576.741644947724, -38362.29900864351, -38522.98569953271, -38858.26186636232, -38882.804081774244, -38572.94184839033, -38355.52643007355, -38511.67571683833, -38850.55051452524, -38882.960543985435, -38571.19841232281, -38349.15618290379, -38503.696144067784, -38841.34159580965, -38874.846860748155, -38571.77955767865, -38352.06190968298, -38504.16553070134, -38839.53110450877, -38873.595163058664, -38569.2538105552, -38348.865610225876, -38498.75640854316]"
Right,"[-35601.56799573517, -35642.3599293661, -35244.90120946184, -34954.462642009574, -35159.450490409195, -35601.59034747963, -35641.44350784344, -35246.152907151336, -34954.686159454126, -35153.59433336191, -35591.95674561939, -35648.596066069134, -35250.84677348695, -34956.429595521644, -35155.06954849596, -35590.794454907715, -35640.4600310874, -35250.53384906457, -34948.22650530654, -35145.23478093562, -35584.155986804486, -35638.51542931979, -35253.10429967693, -34958.10597635579, -35148.676949581735, -35578.88097511303, -35635.20737114041, -35249.1703926528, -34943.17501105965, -35132.6954522962, -35572.197803520896, -35633.68745251745, -35251.0702909315, -34940.78337440293, -35125.20761790367, -35567.19101276291, -35642.62815029957, -35253.01489269911, -34937.92235111265, -35119.97730970113, -35557.55741090267, -35630.66996701598, -35253.8195554995, -34936.4471359786, -35114.67994626522, -35555.076367268135, -35631.85460947211, -35259.11691893541, -34946.19249656111, -35118.14446665579, -35549.957817787865, -35628.658310015, -35256.211192156225, -34937.16239180117, -35109.47198980713, -35549.51078289876, -35635.85557172961, -35264.816613771516, -34937.989406346016, -35107.12505663932, -35550.49425965479, -35644.30453113372, -35267.320009150506, -34939.10699356878, -35104.33108858241, -35544.54869562968, -35638.537781064246, -35273.332628408985, -34936.4471359786, -35096.820902445426, -35537.84317229309, -35634.87209497358, -35270.471605118706, -34944.8513918938, -35100.598347258376, -35535.630349592015, -35634.58152229566, -35270.58336384098, -34932.736746399016, -35088.17077734122, -35529.193047188885, -35633.97802519536, -35276.66303833283, -34935.08367956682, -35089.37777154181, -35533.73045131331, -35647.210257912906, -35281.06633199052, -34936.223618534044, -35086.22617557361, -35524.56623608664, -35637.26373163029, -35283.972058769716, -34939.12934531324, -35085.689733706684, -35522.04048896319, -35639.029519442265, -35288.285945449585, -34945.99133086101, -35083.4322075167, -35520.74408778478, -35640.281217131764, -35290.47641640621, -34940.67161568065, -35078.64893420326, -35513.79269525918, -35637.66606303049, -35288.73298033869, -34932.58028418783, -35067.80833814244, -35512.58570105859, -35648.4172521135, -35295.30439320856, -34932.245008021004, -35063.65091367375, -35501.78980848668, -35631.117001905084, -35286.27428844861, -34925.98651957351, -35055.89485834776, -35491.239785103775, -35627.09368790313, -35288.24124196068, -34935.84363887831, -35052.60915191283, -35484.109578622534, -35626.311376847196, -35289.202366972255, -34921.896150338194, -35042.8190878414, -35476.375875041, -35621.08106864466, -35289.11295999443, -34919.54921717039, -35038.304035461435, -35477.940497152864, -35629.932359448954, -35290.521119895115, -34917.694022380594, -35032.04554701395, -35465.870555147005, -35619.583501766145, -35289.40353267235, -34913.782467100915, -35026.636424855766, -35458.673293432395, -35613.68264122995, -35289.87291930591, -34921.2926532379, -35021.89785503124, -35451.744252651246, -35610.84396968412, -35286.69897159326, -34905.80289433037, -35010.92314850368, -35444.63639791446, -35608.87701617205, -35286.676619848804, -34904.17121698514, -35004.9105292452, -35441.37304322398, -35611.04513538422, -35284.441445403274, -34898.09154249329, -34994.44991284012, -35423.111668004, -35596.382391021536, -35281.55807036854, -34892.70477207956, -34984.36927609078, -35414.86387429999, -35592.29202178622, -35281.826291302, -34898.91855703814, -34978.53547078794, -35405.72201081777, -35589.20748105139, -35278.786454056084, -34883.741722552986, -34969.01362764998, -35397.273051413664, -35583.61954493756, -35278.69704707826, -34883.09352196378, -34966.33141831534, -35398.0553624696, -35585.407684493985, -35275.79132029907, -34877.304420149856, -34955.647284465704, -35377.916440715366, -35572.331913987626, -35274.36080865393, -34874.57750732631, -34950.841659407815, -35374.85425172499, -35574.67884715544, -35279.79228255657, -34886.96037375455, -34950.282865796435, -35370.160385389376, -35570.61082966457, -35277.55710811104, -34875.51628059343, -34942.593865703806, -35363.85719345298, -35570.25320175329, -35276.126596465896, -34868.8778124902, -34934.79310688891, -35365.28770509812, -35568.643876152506, -35274.56197435403, -34866.08384443329, -34925.80770561787, -35345.43935602181, -35557.2444864803, -35271.74565455266, -34860.942943208574, -34918.65514739217, -35337.146858828884, -35553.93642830091, -35274.33845690948, -34871.11298693574, -34914.967109557045, -35333.14589657139, -35553.44468992289, -35272.773834797605, -34857.54547805136, -34905.86994956374, -35322.77468714413, -35545.82274506363, -35268.45994811773, -34853.05277741585, -34898.270356448935, -35321.09830630998, -35545.95685553036, -35267.521174850604, -34849.0741669028, -34891.564833112345, -35305.85441659146, -35539.22898044932, -35274.31610516502, -34855.824393728304, -34892.593013357284, -35304.22273924622, -35544.571047374135, -35282.0274570021, -34864.89920197716, -34889.15084471117]","[-38833.45143001693, -38875.204488659445, -38570.77372917816, -38342.22714212265, -38491.76031252865, -38834.56901723969, -38874.444529347966, -38571.77955767865, -38343.03180492303, -38487.04409444858, -38824.84600840163, -38875.137433426076, -38574.39471177992, -38344.68583401273, -38489.167510171836, -38825.20363631292, -38873.14812816955, -38574.84174666903, -38336.97448217565, -38480.51738506763, -38819.280424032266, -38870.935305468476, -38576.763996692185, -38342.67417701175, -38480.584440301, -38814.47479897437, -38867.24726763336, -38572.04777861211, -38332.213560606666, -38469.788547729084, -38808.864511116095, -38865.72734901039, -38573.455938512794, -38330.045441394504, -38463.306541837046, -38803.187168024444, -38868.141337411565, -38573.612400723985, -38327.20676984868, -38459.03735864608, -38795.788740609736, -38862.28518036428, -38574.931153646845, -38326.02212739255, -38454.634064988386, -38793.9558975644, -38863.514526309315, -38579.64737172692, -38331.14067687281, -38455.19285859977, -38789.127920762054, -38859.670026263004, -38575.89227865842, -38326.93854891522, -38451.057785875535, -38789.686714373434, -38866.88963972207, -38584.05066538461, -38327.98908090461, -38449.49316376366, -38789.686714373434, -38868.94600021196, -38584.944735162826, -38329.06196463847, -38447.503858507145, -38786.266897471774, -38869.21422114542, -38591.04676139913, -38326.73738321512, -38441.11125959292, -38780.32133344666, -38865.347369354655, -38587.47048228628, -38329.7995722055, -38442.58647472697, -38778.68965610143, -38864.721520509906, -38586.77757820816, -38322.93758665772, -38434.003404856136, -38773.1017199876, -38863.98391294288, -38592.141996877435, -38325.217464592155, -38435.85859964593, -38775.91803978897, -38870.75649151284, -38595.070075401076, -38326.133886114825, -38433.26579728911, -38769.570144363664, -38866.532011810785, -38597.931098691355, -38329.285482083025, -38433.578721711485, -38767.759653062785, -38867.94017171147, -38600.88152895946, -38330.11249662787, -38429.376593753885, -38767.02204549576, -38868.94600021196, -38602.7143720048, -38330.69364198371, -38428.057840831025, -38760.98707449283, -38866.196735643956, -38600.16627313689, -38322.46820002415, -38417.999555826136, -38757.56725759116, -38871.27058163531, -38605.754209250714, -38322.088220368416, -38414.423276713285, -38750.347644132096, -38859.31239835172, -38596.58999402404, -38316.00854587657, -38407.60599465442, -38740.71404227186, -38855.15497388303, -38597.104084146515, -38319.51776975606, -38403.113294018905, -38734.053222424176, -38853.9703314269, -38597.81933996908, -38311.60525221888, -38395.84897707093, -38727.37005083204, -38848.80707845773, -38597.19349112434, -38309.414781262254, -38392.27269795808, -38726.25246360928, -38852.338654081665, -38597.30524984661, -38307.112551583356, -38386.684761844255, -38718.407001305466, -38846.817773201205, -38595.897089945924, -38303.37981025932, -38382.21441295319, -38712.237919835796, -38841.05102313173, -38594.9583166788, -38304.78797016, -38376.805290795004, -38706.06883836613, -38838.078241119176, -38591.91847943288, -38295.444940977686, -38368.289276157535, -38700.011515618746, -38836.31245330721, -38591.56085152159, -38294.08148456591, -38363.26013365509, -38693.59656496007, -38833.9655201394, -38588.47631078676, -38287.95710658516, -38353.51477307257, -38680.38668398699, -38823.84017990115, -38585.39177005193, -38283.062074549445, -38344.68583401273, -38673.45764320584, -38820.08508683265, -38584.34123806253, -38283.19618501618, -38338.650863009796, -38665.43336694639, -38817.15700830901, -38581.83784268354, -38274.36724595633, -38331.47595303964, -38658.43727093188, -38811.926700106465, -38581.502566516705, -38274.0319697895, -38329.86662743886, -38655.44213717486, -38809.758580894304, -38577.72512170376, -38268.06405401994, -38320.07656336744, -38641.18172421238, -38800.86258660109, -38576.18285133634, -38265.69476910767, -38316.23206332112, -38639.28182593368, -38803.50009244682, -38579.692075215826, -38272.020312788525, -38315.82973192093, -38635.66084333192, -38799.49913018932, -38578.641543226426, -38267.01352203054, -38310.15238882928, -38630.69875606284, -38799.47677844486, -38576.85340367001, -38260.39740567176, -38303.0892375814, -38627.994194983745, -38794.84996734261, -38574.70763620229, -38257.64814110377, -38295.33318225541, -38614.60550005502, -38786.982153294346, -38571.53368848964, -38252.64135034577, -38289.02999031902, -38607.49764531823, -38783.74115034832, -38571.5560402341, -38256.84347830337, -38285.520766439535, -38604.05547667211, -38783.0035427813, -38571.33252278954, -38249.13212646629, -38277.831766346906, -38594.9583166788, -38775.716874088874, -38566.68335994284, -38244.5276671085, -38270.74626335457, -38588.52101427568, -38773.21347870988, -38564.89522038642, -38240.39259438427, -38265.22538247411, -38580.07205487157, -38769.34662691911, -38571.5560402341, -38247.29928342096, -38266.924115052716, -38579.53561300464, -38774.666342099474, -38575.78051993615, -38250.40617590024, -38263.57135338442]"
Neutral,"[-35294.879710063906, -35532.85873327956, -35266.202421927745, -34843.396823811156, -34875.11394919323, -35282.54154712457, -35525.2367884203, -35261.12857593639, -34836.467783030006, -34867.313190378336, -35283.16739596932, -35525.54971284267, -35263.65432305984, -34839.21704759801, -34863.22282114301, -35269.68929406277, -35520.542922084685, -35262.96141898172, -34835.55136150734, -34858.79717574086, -35262.26851490361, -35516.07257319362, -35270.4269016298, -34847.46484130202, -34854.46093731653, -35254.98184621118, -35514.61970980403, -35267.34236089497, -34840.15582086513, -34856.405539084146, -35256.99350321216, -35519.335927884094, -35272.3267999085, -34841.0722423878, -34850.63878901467, -35258.26755264611, -35517.01134646074, -35272.75148305315, -34841.22870459899, -34848.02363491341, -35245.8176309845, -35509.903491723955, -35268.929334751294, -34838.635902242175, -34840.46874528751, -35234.798220968034, -35506.21545388883, -35277.735922066684, -34845.98962616797, -34837.0712801303, -35231.57956976647, -35507.5789103006, -35274.04788423156, -34841.295759832356, -34835.99839639645, -35225.49989527463, -35506.30486086665, -35274.33845690948, -34835.93134116308, -34832.064489372315, -35234.8652762014, -35505.20962538834, -35275.299581921056, -34840.93813192107, -34830.07518411579, -35214.97222363618, -35499.88991020798, -35272.639724330875, -34834.5231812624, -34819.771029921896, -35205.808008409505, -35493.31849733812, -35281.20044245725, -34841.25105634345, -34817.111172331715, -35205.74095317614, -35498.19117762938, -35278.093549977966, -34835.23843708497, -34812.350250762735, -35195.28033677105, -35489.563404269626, -35273.489090620176, -34834.83610568477, -34809.98096585047, -35199.30365077301, -35489.138721124975, -35273.77966329809, -34831.03630912737, -34802.82840762477, -35181.891641842325, -35481.76264545473, -35270.0245702296, -34827.63884397016, -34794.15593077611, -35171.45337718169, -35478.365180297515, -35283.83794830298, -34840.15582086513, -34796.16758777709, -35169.95581030319, -35475.68297096288, -35274.941954009766, -34831.997434138946, -34791.67488714158, -35164.56903988946, -35475.1241773515, -35274.29375342056, -34830.85749517173, -34793.28421274236, -35172.77213010456, -35474.475976762296, -35276.350113910456, -34831.12571610519, -34782.98005854846, -35150.018054249056, -35465.82585165809, -35272.706779564236, -34827.41532652561, -34780.00727653591, -35149.21339144867, -35465.088244091065, -35286.00606751515, -34836.75835570793, -34778.19678523502, -35145.03361523552, -35469.04450285965, -35281.93805002428, -34837.4736115305, -34779.06850326878, -35142.55257160099, -35466.78697666967, -35281.446311646265, -34835.95369290754, -34779.24731722442, -35147.358196658875, -35465.13294757998, -35282.74271282467, -34835.908989418625, -34771.42420666507, -35133.90244649678, -35463.50127023474, -35284.95553552575, -34836.57954175229, -34767.624410107666, -35127.4427923492, -35460.193212055354, -35293.44919841876, -34839.30645457583, -34762.12588097166, -35117.71978351114, -35451.69954916234, -35280.261669190135, -34833.76322195092, -34758.54960185881, -35112.824751475426, -35450.0678718171, -35282.69800933576, -34832.556227750334, -34759.10839547019, -35117.47391432213, -35446.223371770786, -35276.23835518818, -34826.45420151403, -34744.35624412969, -35095.61390824484, -35438.40026121143, -35277.043017988566, -34827.169457336604, -34741.09288943921, -35088.81897793042, -35436.00862455471, -35286.72132333771, -34828.30939630382, -34733.80622074678, -35078.51482373653, -35426.66559537239, -35267.49882310615, -34818.22875955448, -34726.02781367634, -35069.73058816559, -35419.06600225759, -35262.492032348164, -34815.45714324202, -34725.58077878723, -35069.30590502094, -35414.9085777889, -35263.766081782116, -34815.23362579747, -34715.813066460265, -35053.83849785787, -35407.7560195632, -35256.635875300875, -34807.79049489385, -34703.854883176675, -35041.18741049617, -35401.72104856027, -35265.3754073829, -34806.69525941554, -34696.523510995336, -35031.08442200237, -35390.27695539915, -35248.589247296964, -34797.21811976649, -34684.185348056, -35018.67920382967, -35380.39748434991, -35242.95660769422, -34796.45816045501, -34693.14839758258, -35024.44595389914, -35381.11274017247, -35245.05767167302, -34795.988773821446, -34676.11636830764, -35004.30703214491, -35372.86494646847, -35243.001311183136, -34792.68071564206, -34671.28839150529, -34997.892081486236, -35368.48400455523, -35249.818593242, -34793.57478542028, -34669.4331967155, -34996.43921809664, -35364.058359153074, -35237.10045064693, -34790.9149278301, -34664.627571657606, -34985.62097378027, -35358.60453350598, -35235.73699423516, -34789.417360951586, -34667.30978099225, -34985.084531913344, -35352.83778343652, -35233.814744212, -34785.461102183, -34647.99787378286, -34967.22548809356, -35344.61234147696, -35228.40562205382, -34783.047113781824, -34646.90263830455, -34959.82706067885, -35342.064242609056, -35238.4192035698, -34780.23079398046, -34638.14075447807]","[-38570.751377433706, -38763.04343498271, -38562.25771454069, -38234.58114082589, -38251.16613521172, -38559.86607788397, -38755.68971105692, -38556.87094412696, -38227.6744517892, -38243.633597330285, -38555.55219120409, -38754.03568196722, -38558.81554589457, -38230.356661123835, -38240.7278705511, -38549.09253705651, -38751.532286588226, -38557.76501390517, -38226.60156805534, -38237.24099841607, -38542.87875209794, -38747.196048163896, -38561.49775522921, -38233.24003615857, -38233.26238790302, -38536.44144969481, -38745.85494349658, -38561.07307208456, -38230.93780647967, -38236.369280382314, -38539.74950787419, -38750.839382510116, -38565.74458667572, -38231.80952451343, -38230.46841984611, -38535.7485456167, -38746.88312374152, -38565.34225527552, -38231.675414046695, -38229.14966692325, -38530.36177520297, -38741.585760305614, -38561.43069999584, -38229.104963434336, -38222.399440097746, -38520.3928971759, -38738.121239915046, -38565.61047620898, -38231.31778613541, -38219.292547618454, -38517.91185354136, -38739.41764109345, -38565.27520004215, -38231.116620435314, -38219.18078889618, -38512.77095231664, -38738.07653642613, -38564.82816515305, -38225.34987036585, -38214.4198673272, -38516.48134189622, -38735.595492791595, -38564.8505168975, -38229.77551576799, -38213.928128949185, -38503.65144057888, -38731.48277181182, -38561.67656918485, -38223.002937198034, -38204.138064877756, -38495.26953640813, -38724.956062430865, -38565.074034342055, -38225.3722221103, -38201.74642822104, -38496.007143975155, -38729.89579795549, -38565.94575237582, -38222.98058545358, -38197.74546596354, -38486.59705955948, -38721.536245529205, -38560.961313362284, -38222.533550564476, -38194.45975952861, -38485.323010125525, -38720.28454783971, -38560.49192672872, -38218.197312140146, -38189.45296877062, -38475.06355942054, -38714.00370764777, -38556.51331621568, -38214.73279174957, -38181.339285533344, -38465.69817849376, -38710.96387040184, -38564.98462736424, -38223.785248253975, -38184.26736405699, -38465.385254071385, -38708.751047700775, -38560.894258128916, -38218.93491970717, -38180.579326221865, -38461.116070880424, -38708.34871630058, -38559.843726139516, -38217.70557376213, -38180.735788433056, -38464.02179765961, -38707.05231512217, -38561.162479062375, -38217.43735282867, -38173.06914008488, -38448.3755765409, -38699.34096328509, -38557.29562727161, -38213.70461150463, -38170.6104481948, -38448.554390496545, -38698.7821696737, -38564.49288898622, -38219.85134122984, -38169.179936549655, -38445.13457359488, -38703.11840809803, -38565.74458667572, -38223.20410289813, -38170.94572436163, -38443.88287590538, -38701.17380633042, -38564.82816515305, -38221.393611597254, -38168.93406736065, -38443.81582067202, -38699.162149329444, -38565.4540139978, -38220.90187321924, -38164.3072562584, -38437.04324210206, -38698.31278304014, -38567.51037448768, -38221.43831508617, -38161.22271552357, -38431.56706471051, -38694.78120741621, -38569.4549762553, -38221.483018575076, -38155.768889876475, -38422.469904717196, -38686.91339336793, -38561.83303139604, -38217.86203597332, -38152.952570075104, -38418.89362560435, -38685.63934393398, -38563.82233665256, -38216.431524328174, -38151.007968307495, -38419.094791304444, -38681.50427120975, -38556.692130171316, -38209.7707044805, -38139.765040846476, -38403.35916320791, -38674.351712984055, -38557.27327552716, -38210.284794602965, -38137.1498867452, -38397.68182011626, -38671.624800160505, -38560.38016800644, -38209.18955912466, -38130.042032008416, -38388.137625233845, -38663.108785523036, -38546.969121333255, -38200.718247976096, -38123.001232505, -38380.42627339676, -38655.956227297334, -38541.76116487517, -38197.83487294136, -38119.469656881054, -38376.11238671689, -38651.776451084195, -38542.58817942002, -38197.141968863245, -38113.99347948951, -38366.478784856656, -38645.473259147795, -38535.25680723868, -38189.45296877062, -38102.75055202848, -38355.03469169554, -38638.767735811205, -38537.402574706386, -38186.8154629249, -38095.79915950289, -38345.62460727985, -38628.55298859513, -38526.60668213447, -38178.32180003188, -38084.15390064167, -38334.515790285564, -38619.366421624, -38520.99639427619, -38177.49478548703, -38089.49596756649, -38337.376813575844, -38620.43930535785, -38522.60571987697, -38176.69012268664, -38077.49308079399, -38322.49055176861, -38612.72795352077, -38520.683469853815, -38173.583230207354, -38073.38035981421, -38317.12613309934, -38607.69881101833, -38520.974042531736, -38172.97973310706, -38071.97219991353, -38316.61204297686, -38604.94954645033, -38514.268519195146, -38171.213945295094, -38067.85947893375, -38306.978441116626, -38600.16627313689, -38513.061524994555, -38169.604619694306, -38066.29485682188, -38303.9386038707, -38594.46657830079, -38510.558129615565, -38165.26838126998, -38052.4814787485, -38290.70637115317, -38587.13520611945, -38505.14900745738, -38162.608523679795, -38052.10149909276, -38284.58199317241, -38583.29070607313, -38508.747638314686, -38158.696968400116, -38043.831353644295]"
Left,"[-34948.83000240684, -35327.13327731291, -35220.80602893901, -34777.86150906819, -34632.61987359761, -34944.896095382705, -35326.55213195707, -35219.33081380496, -34774.77696833336, -34635.16797246551, -34941.610388947774, -35324.62988193391, -35224.71758421869, -34777.16860499008, -34625.623777583096, -34935.3966039892, -35321.21006503225, -35222.34829930643, -34778.241488723936, -34619.85702751363, -34922.164371271654, -35314.48218995121, -35227.71271797571, -34774.821671822276, -34613.77735302178, -34916.57643515783, -35308.9836608152, -35217.766191693096, -34771.379503176155, -34606.02129769579, -34904.50649315197, -35297.56191939854, -35207.462037499194, -34765.992732762425, -34608.904672730525, -34900.88551055021, -35291.03521001759, -35206.836188654444, -34766.17154671807, -34596.72297200239, -34892.458902890554, -35289.895271050365, -35206.18798806524, -34764.78573856184, -34592.29732660024, -34884.367571397735, -35288.95649778325, -35213.51936024659, -34764.539869372835, -34586.687038741955, -34875.76214978244, -35277.959439511236, -35203.61753745288, -34764.69633158402, -34585.59180326364, -34872.051760202856, -35271.41037838583, -35199.795389151026, -34763.22111644997, -34592.61025102261, -34873.169347425624, -35269.286962662576, -35197.426104238766, -34762.59526760522, -34576.3605328036, -34858.26073387393, -35260.59213406946, -35196.286165271544, -34760.963590259984, -34570.817300178685, -34855.39971058365, -35265.10718644943, -35198.878967628356, -34753.94514250102, -34562.92713438596, -34844.55911452283, -35255.89826773385, -35194.69919141522, -34755.666226824076, -34559.88729714004, -34837.33950106377, -35245.25883737312, -35188.82068262347, -34754.99567449041, -34564.938791386936, -34832.28800681687, -35237.1675058803, -35183.52331918756, -34751.93348550004, -34548.309093512195, -34820.12865783318, -35231.534866277565, -35183.52331918756, -34752.67109306707, -34547.191506289426, -34812.95374786303, -35231.177238366276, -35184.90912734379, -34747.23961916442, -34538.54138118522, -34803.677773914074, -35219.0625928715, -35173.80031034951, -34742.56810457326, -34529.93595956993, -34797.17341627758, -35212.46882825719, -35172.168633004265, -34746.0996801972, -34540.038948063724, -34793.93241333156, -35207.99847936612, -35170.62636263685, -34742.61280806218, -34524.3480234561, -34787.00337255042, -35203.2599095416, -35167.832394579935, -34741.00348246139, -34519.430639675935, -34780.14138700264, -35205.942118876235, -35172.90624057129, -34744.602113318695, -34522.11284901057, -34777.660343368094, -35193.73806640364, -35165.597220134405, -34742.90338074009, -34514.13327624003, -34767.51265138539, -35189.62534542386, -35166.69245561272, -34746.88199125314, -34520.92820655444, -34761.41062514909, -35185.11029304389, -35165.038426523024, -34740.22117140546, -34504.58908135761, -34753.72162505646, -35178.24830749611, -35158.44466190871, -34737.762479515375, -34500.85634003358, -34746.32319764176, -35180.88581334184, -35164.52433640055, -34742.366938873165, -34501.750409811786, -34743.30571214029, -35166.938324801726, -35158.64582760881, -34742.47869759544, -34498.48705512131, -34737.203685903994, -35163.518507900066, -35154.488403140116, -34742.59045631772, -34501.884520278516, -34730.34170035621, -35155.874211296345, -35152.38733916132, -34736.51078182588, -34485.187767170406, -34721.28924385181, -35149.83924029341, -35151.6497315943, -34738.27656963785, -34485.07600844813, -34718.33881358371, -35156.365949674364, -35152.65556009478, -34739.03652894933, -34484.5395665812, -34715.07545889324, -35144.78774604652, -35148.72165307065, -34736.287264381324, -34474.34717110958, -34703.854883176675, -35136.607007575876, -35144.22895243513, -34738.99182546041, -34480.628011301524, -34699.49629300789, -35131.01907146205, -35144.541876857504, -34738.00834870438, -34473.31899086464, -34697.77520868483, -35132.15901042927, -35147.29114142551, -34738.2989213823, -34469.20626988486, -34693.014287115846, -35137.41167037626, -35150.44273739371, -34741.98695921743, -34472.179051897416, -34690.33207778121, -35122.21248414666, -35144.47482162414, -34738.656549293584, -34461.964304681336, -34680.67612417652, -35116.26692012155, -35140.74208030011, -34746.88199125314, -34472.514328064244, -34678.79857764227, -35112.44477181968, -35139.51273435506, -34738.88006673814, -34459.595019769076, -34673.94824909547, -35106.99094617259, -35137.97046398764, -34739.17063941606, -34456.35401682306, -34664.7840338688, -35110.25430086307, -35137.009338976066, -34738.36597661566, -34452.21894409883, -34659.77724311081, -35095.85977743385, -35131.17553367323, -34734.43206959153, -34445.42401378441, -34648.10963250514, -35085.622678473315, -35128.31451038295, -34741.338758628226, -34450.25199058676, -34644.46629815892, -35082.493434249576, -35127.75571677157, -34733.292130624315, -34440.707795704344, -34639.817135312216, -35077.41958825822, -35127.66630979375, -34735.59436030321, -34438.31615904762, -34635.23502769888, -35082.22521331611, -35126.25814989307, -34735.88493298113, -34435.52219099071]","[-38274.613115145345, -38570.63961871143, -38497.0353242201, -38156.97588407706, -38039.025728586406, -38271.70738836615, -38570.594915222515, -38495.582460830505, -38153.57841891985, -38036.701147163054, -38266.566487141434, -38568.985589621734, -38500.5892515885, -38155.88064859875, -38033.3260337503, -38264.42071967372, -38566.34808377601, -38498.19761493178, -38156.59590442132, -38027.93926333657, -38252.171963712215, -38557.675606927354, -38497.46000736475, -38152.25966599699, -38022.10545803374, -38247.45574563214, -38554.99339759271, -38493.079065451515, -38149.1527735177, -38015.26582423042, -38236.61514957132, -38544.08574629852, -38482.596097301976, -38143.184857748136, -38012.9188910626, -38231.78717276897, -38538.05077529559, -38481.79143450158, -38143.34131995933, -38006.928623548585, -38226.53451282198, -38537.55903691758, -38481.07617867901, -38141.62023563626, -38003.017068268906, -38219.49371331855, -38534.027461293634, -38482.55139381306, -38140.61440713578, -37997.67500134409, -38211.6706027592, -38526.47257166774, -38477.969286199725, -38140.83792458033, -37997.22796645498, -38209.01074516901, -38520.415248920355, -38474.01302743114, -38138.37923269025, -37998.34555367775, -38208.98839342456, -38518.56005413056, -38471.196707629766, -38137.932197801136, -37988.93546926206, -38197.25372758552, -38510.64753659339, -38470.16852738483, -38136.12170650026, -37983.97338199298, -38195.57734675138, -38512.1898069608, -38467.642780261376, -38128.38800291872, -37976.2620301559, -38185.42965476867, -38507.02655399162, -38468.112166894934, -38130.13143898624, -37973.95980047701, -38179.21586981009, -38496.94591724228, -38462.077195892, -38128.18683721863, -37973.26689639889, -38173.89615462973, -38489.301620638566, -38456.48925977817, -38125.72814532854, -37963.25331488292, -38163.97198009157, -38484.31718162503, -38456.444556289265, -38126.041069750914, -37962.42630033807, -38157.579381177355, -38480.04799843407, -38453.47177427671, -38119.87198828125, -37953.95498918951, -38149.24218049552, -38472.76132974164, -38446.38627128438, -38115.133418456724, -37946.08717514124, -38143.85541008179, -38466.83811746098, -38444.41931777231, -38116.87685452424, -37950.33400658775, -38140.43559318013, -38462.70304473675, -38442.65352996034, -38114.28405216742, -37941.214494849984, -38135.54056114442, -38458.99265515717, -38440.06072760352, -38112.45120912209, -37936.96766340348, -38129.88556979723, -38457.38332955639, -38441.46888750421, -38115.73691555702, -37940.231018093946, -38128.54446512991, -38450.789564942075, -38437.66909094681, -38113.99347948951, -37932.676128468054, -38119.268491180956, -38447.347396295954, -38438.831381658485, -38115.80397079039, -37933.83841917973, -38113.479389367036, -38443.23467531618, -38436.88677989087, -38110.596014332295, -37923.95894813049, -38107.55617708638, -38437.155000824336, -38430.158904809825, -38107.600880575286, -37920.53913122882, -38100.85065374978, -38434.919826378806, -38433.2210938002, -38111.91476725516, -37922.08140159624, -38099.129569426725, -38427.25317803063, -38430.38242225438, -38111.82536027734, -37919.332137028236, -38094.12277866874, -38424.68272741827, -38426.35910825242, -38109.21020617607, -37917.25342479389, -38087.6407727767, -38417.59722442594, -38424.3698029959, -38105.81274101886, -37907.48571246692, -38080.890545951195, -38412.970413323696, -38424.012175084616, -38107.533825341925, -37908.133913056125, -38078.655371505665, -38414.356221479924, -38422.69342216175, -38107.89145325321, -37907.798636889296, -38076.554307526865, -38409.260023744115, -38421.26291051661, -38104.96337472956, -37898.16503502906, -38066.65248473317, -38401.88394807386, -38416.658451158815, -38104.40458111818, -37899.37202922965, -38062.69622596457, -38396.92186080478, -38416.881968603375, -38106.14801718569, -37898.008572817875, -38062.31624630884, -38398.911166061305, -38419.72064014919, -38106.01390671896, -37894.164072771564, -38057.734138695494, -38398.37472419438, -38420.39119248286, -38108.76317128696, -37897.0474478063, -38056.10246135026, -38389.478729901166, -38415.98789882516, -38105.008078218474, -37887.01151454586, -38047.29587403487, -38384.06960774298, -38412.07634354548, -38108.74081954251, -37892.331229726224, -38045.440679245075, -38380.26981118558, -38410.13174177787, -38103.599918317785, -37884.26224997786, -38041.327958265305, -38375.285372172046, -38408.23184349917, -38103.175235173134, -37881.20006098748, -38031.85081861625, -38372.60316283741, -38405.25906148661, -38101.29768863889, -37876.77441558533, -38028.22983601449, -38364.7577005336, -38400.63225038436, -38097.028505447925, -37870.09124399319, -38017.23277774248, -38355.012339951085, -38397.39124743835, -38098.74958977099, -37870.605334115666, -38013.88001607419, -38352.06190968298, -38396.47482591568, -38094.48040658002, -37865.50913637986, -38010.415495683614, -38347.92683695875, -38396.47482591568, -38096.402656603175, -37863.51983112333, -38005.49811190344, -38347.12217415836, -38393.680857858766, -38095.843862991795, -37860.59175259969]"
Neutral,"[-34627.14369620606, -35068.23302128709, -35125.56524581495, -34737.11427892617, -34434.40460376794, -34625.556722349735, -35061.34868399485, -35121.00548994607, -34744.06567145177, -34434.29284504567, -34614.716126288906, -35053.72673913559, -35119.08323992291, -34737.606017304184, -34425.73212691928, -34608.59174830816, -35047.6247128993, -35114.47878056512, -34732.17454340155, -34420.61357743902, -34606.28951862926, -35054.50905019153, -35117.71978351114, -34736.75665101488, -34424.03339434068, -34603.92023371699, -35042.55086690794, -35113.18237938671, -34735.57200855875, -34417.86431287102, -34593.05728591172, -35031.307939446924, -35107.46033280615, -34740.51174408338, -34418.95954834933, -34586.687038741955, -35025.34002367735, -35102.36413507034, -34726.094868909706, -34403.00040280824, -34576.38288454806, -35018.90272127423, -35102.81116995945, -34729.648796278096, -34402.17338826339, -34573.477157768866, -35019.75208756353, -35096.30681232295, -34726.27368286534, -34397.926556816885, -34565.67639895396, -35007.816256024395, -35098.98902165759, -34730.87814222314, -34400.027620795685, -34566.190489076434, -35003.54707283343, -35093.7810651995, -34734.58853180272, -34396.09371377155, -34553.51704997028, -34996.12629367427, -35095.055114633455, -34732.04043293482, -34394.216167237304, -34553.58410520364, -34992.30414537241, -35091.16591109824, -34727.25715962138, -34388.918803801396, -34549.69490166842, -34993.86876748428, -35088.88603316379, -34725.84899972069, -34383.241460709745, -34537.826125362655, -34978.06608415438, -35086.807320929445, -34728.330043355236, -34384.20258572132, -34532.52876192675, -34970.73471197304, -35081.37584702681, -34732.97920620194, -34382.816777565095, -34527.38786070202, -34963.31393281388, -35078.5818789699, -34725.11139215367, -34375.59716410603, -34517.86601756406, -34958.21773507807, -35076.4808149911, -34723.703232252985, -34372.66908558239, -34523.208084488884, -34962.91160141368, -35070.75876841054, -34719.992842673404, -34366.678818068365, -34507.51715988125, -34946.30425528339, -35069.261201532034, -34719.858732206674, -34365.27065816768, -34502.376258656535, -34937.47531622354, -35063.31563750692, -34727.43597357702, -34360.75560578771, -34493.077932963126, -34933.56376094386, -35063.91913460721, -34714.80723795977, -34355.59235281853, -34488.71934279434, -34927.5958451743, -35059.046454315954, -34716.371860071646, -34353.89362023993, -34489.658116061466, -34925.20420851758, -35055.26900950301, -34716.41656356055, -34352.26194289469, -34478.05756068916, -34913.91657756765, -35054.77727112499, -34718.40586881708, -34351.367873116484, -34473.564860053644, -34909.51328390995, -35053.70438739114, -34725.42431657604, -34346.472841080766, -34468.20044138437, -34904.17121698514, -35052.25152400154, -34717.66826125005, -34346.964579458785, -34464.0877204046, -34897.912728537645, -35046.350663465346, -34713.443781548, -34342.561285801086, -34466.6358192725, -34900.90786229466, -35048.02704429949, -34715.61190076017, -34340.102593911004, -34452.84479294357, -34885.194585942576, -35040.33804420687, -34714.65077574859, -34341.26488462268, -34450.54256326468, -34883.60761208625, -35042.26029423002, -34724.84317122021, -34337.84506772102, -34442.65239747195, -34876.56681258283, -35035.66652961571, -34711.72269722494, -34331.00543391769, -34433.73405143429, -34868.0284462009, -35029.87742780178, -34706.090057622205, -34327.71972748276, -34441.22188582682, -34868.78840551239, -35028.290453945454, -34709.55457801278, -34325.66336699288, -34423.49695247375, -34854.34917859425, -35025.988224266555, -34708.83932219021, -34322.55647451359, -34417.082001815084, -34847.26367560192, -35025.04945099944, -34716.081287393725, -34319.02489888965, -34413.50572270223, -34842.7262714775, -35015.81818053939, -34702.044391875796, -34313.92870115384, -34407.44839995485, -34836.467783030006, -35014.76764854999, -34702.15615059807, -34312.54289299761, -34412.00815582373, -34833.42794578409, -35009.44793336963, -34700.65858371957, -34309.30189005159, -34397.300707972136, -34826.43184976958, -35010.52081710348, -34701.329136053224, -34306.10559059448, -34388.002382278726, -34817.02176535389, -35012.4654188711, -34711.76740071385, -34305.25622430518, -34386.460111911314, -34811.992622851445, -34999.25553789801, -34695.92001389504, -34297.79074165711, -34377.295896684634, -34805.17534079258, -34997.66856404168, -34694.19892957198, -34296.82961664553, -34383.19675722084, -34799.140369789646, -34991.16420640519, -34691.98610687091, -34292.851006132485, -34368.08697796905, -34791.20550050801, -34990.22543313807, -34692.72371443793, -34288.0453810746, -34358.45337610881, -34782.80124459282, -34991.14185466073, -34699.07160986324, -34287.754808396676, -34356.955809230305, -34780.23079398046, -34979.67540975516, -34685.01236260085, -34282.099817049486, -34351.70314928331, -34773.03353226585, -34979.697761499614, -34688.476882991425, -34283.127997294425, -34357.02286446367, -34771.111282242695, -34977.86491845428, -34687.694571935484, -34280.42343621534]","[-37999.32903043378, -38339.99196767712, -38393.97143053668, -38096.84969149229, -37859.92120026603, -37998.747885077944, -38333.889941440815, -38389.36697117889, -38098.5931275598, -37856.6354938311, -37988.80135879533, -38327.11736287086, -38387.75764557811, -38096.84969149229, -37852.12044145113, -37983.88397501516, -38321.99881339059, -38383.242593198134, -38090.97118270054, -37847.29246464878, -37980.575916835776, -38323.272862824546, -38385.410712410296, -38094.88273798022, -37850.84639201718, -37980.777082535875, -38318.19901683319, -38381.6109158529, -38093.474578079535, -37845.10199369216, -37970.852907997716, -38307.64899345028, -38375.73240706115, -38092.558156556865, -37843.470316346924, -37965.35437886172, -38302.41868524774, -38370.83737502544, -38083.10336865227, -37830.48395281839, -37955.92194270157, -38296.830749133915, -38371.12794770336, -38086.05379892037, -37829.96986269592, -37951.51864904388, -38292.27099326503, -38363.77422377756, -38082.11989189624, -37825.70067950495, -37946.71302398599, -38286.92892634022, -38367.082281956944, -38086.36672334275, -37828.092316161674, -37948.054128653304, -38283.59851641637, -38361.62845630985, -38083.8409762193, -37821.90088294755, -37936.095945369714, -38276.7365308686, -38363.14837493281, -38086.72435125403, -37822.77260098131, -37937.23588433694, -38273.92021106723, -38359.21446790868, -38081.449339562576, -37817.72110673441, -37931.4020790341, -38270.72391161012, -38356.57696206295, -38079.571793028335, -37811.93200492048, -37922.79665741881, -38260.844440560875, -38354.67706378425, -38081.5387465404, -37813.09429563216, -37918.39336376111, -38254.29537943547, -38348.642092781316, -38079.52708953942, -37809.6744787305, -37913.811256147776, -38247.545152609964, -38346.54102880252, -38077.64954300517, -37804.891205417065, -37905.36229674367, -38243.16421069673, -38344.305854356986, -38075.660237748656, -37802.09723736015, -37907.82098863375, -38243.56654209692, -38338.13677288732, -38071.2345923465, -37796.06226635722, -37896.533357683824, -38232.81535301392, -38336.907426942285, -38070.742853968484, -37794.877623901084, -37892.21947100395, -38224.9251872212, -38330.35836581688, -38071.88279293571, -37789.28968778726, -37883.815215088754, -38221.86299823082, -38332.10180188439, -38065.512545765945, -37786.00398135233, -37880.596563887186, -38217.146780150746, -38327.63145299333, -38067.01011264445, -37784.93109761847, -37878.361389441656, -38211.24591961455, -38323.92106341375, -38066.853650433266, -37783.58999295116, -37872.05819750526, -38205.3674108228, -38323.87635992484, -38068.865307434244, -37783.14295806205, -37868.54897362578, -38201.85818694332, -38321.5964819904, -38069.17823185662, -37777.15269054803, -37863.72099682343, -38197.32078281889, -38321.44001977921, -38067.09951962227, -37778.873774871085, -37860.479993877416, -38191.68814321615, -38315.53915924301, -38062.47270852002, -37774.269315513295, -37858.714206065444, -38191.621087982785, -38316.835560421416, -38063.85851667625, -37771.676513156475, -37850.041729216784, -38179.93112563266, -38309.23596730661, -38062.53976375339, -37772.97291433489, -37848.790031527285, -38179.30527678791, -38309.32537428443, -38065.803118443866, -37768.50256544382, -37840.98927271239, -38172.5103464735, -38304.1397695708, -38058.516449751434, -37762.62405665208, -37832.920292964016, -38164.84369812533, -38298.730647412616, -38052.59323747078, -37759.22659149487, -37835.62485404311, -38162.92144810217, -38296.65193517828, -38055.32015029433, -37756.94671356043, -37823.46550505942, -38152.125555530256, -38294.28265026601, -38054.00139737146, -37753.59395189214, -37817.38583056758, -38145.50943917149, -38290.92988859772, -38054.5825427273, -37749.23536172335, -37813.988365410376, -38141.24025598053, -38283.66557164974, -38046.11123157874, -37744.92147504348, -37808.802760696744, -38135.8534855668, -38282.927964082715, -38045.932417623095, -37743.13333548705, -37808.042801385265, -38130.98080527554, -38277.29532447998, -38043.80900189984, -37740.13820173004, -37799.88441465908, -38127.18100871814, -38278.457615191655, -38044.09957457776, -37737.12071622857, -37791.21193781042, -38118.642642336206, -38277.51884192453, -38048.39110951318, -37735.64550109452, -37790.139054076564, -38114.21699693406, -38267.30409470846, -38037.99754834146, -37728.85057078011, -37781.8689086281, -38108.38319163123, -38266.007693530046, -38036.075298318305, -37727.44241087943, -37782.27124002829, -38100.805950260874, -38259.41392891573, -38033.504847705946, -37724.290814911226, -37774.202260279926, -38096.134435669715, -38259.0786527489, -38034.24245527297, -37719.61930032007, -37765.35096947563, -38088.60189778828, -38256.79877481446, -38035.158876795635, -37719.06050670869, -37764.36749271959, -38086.63494427621, -38248.752146810555, -38025.86055110223, -37713.67373629496, -37759.80773685071, -38080.35410408427, -38248.953312510646, -38028.945091837064, -37713.98666071733, -37759.38305370606, -38077.51543253844, -38247.075765976406, -38027.983966825486, -37712.332631627636]"
